\wavsamp version for S15.0, 2006 Sep 18
\processing time 15:08:07 PST 09/18/2006
\character channelID = 2
\char HISTORY ========== Parameters supplied to RIDGE program below ==========
\char HISTORY PROCESS 2008/04/24 07:56:04
\char HISTORY ridge v1.15  (nl_and_params v1.9)
\char HISTORY WAVSAMP_FILE = ./cal/wavsamp.tbl
\char HISTORY PROFILE_FILE = profile.tbl
\char HISTORY PSF_FOV_FILE = ./cal/psf_fov.tbl
\char HISTORY PCT_RANGE = 25.0, percent
\char HISTORY NUM_SIGMA = 3.0,
\char HISTORY MEDIAN_PTS = 5.0,
\char HISTORY NAMELIST_FILE = ./cdf/ridge.nl
\char HISTORY ========== RIDGE processing results summary below ==========
\char HISTORY FIND PEAKS: YES
\char HISTORY OVERALL BEST Max DN=2873.7 at PCT=33.50, found in region 0
\char HISTORY MED_FILT_SIZE = 5
\char HISTORY PERCENTAGE = 33.50  (cut was performed here)
\char HISTORY MAX_SIGNAL = 2873.7  (maximum signal value in DN)
\char HISTORY CUT_POS = 33.5  (pct at which the max signal was found)
\char HISTORY MAX_SIGNAL_IN_REGION = 0  (region where max signal was found)
\char HISTORY DET_THRESH = -4.22217  (number of sigma over threshold)
\char HISTORY DET_SIGMA = 589.956  (sigma value used to find threshold)
\COMMENT ========== Keywords from PROFILE table file below ==========
\char NAXIS   =                    2 / STANDARD FITS FORMAT
\char NAXIS1  =                  128
\char NAXIS2  =                  128
\char ORIGIN  = 'Spitzer Science Center' / Organization generating this FITS file
\char CREATOR = 'S17.2.0 '           / SW version used to create this FITS file
\char TELESCOP= 'Spitzer '
\char INSTRUME= 'IRSX    '
\char CAL_SET = 'C17.2.A '           / ID for the set of CAL files used
\char CHNLNUM =                    2 / 0=SL, 1=SH, 2=LL, 3=LH
\char FILENAME= 'IRSX.2.0024015360.0007.0010.01.mipl.fits' / File name
\char FILETYPE= 'fits-irs2d-flux'
\char EXPTYPE = 'sp      '           / Exposure Type
\char REQTYPE = 'AOR     '           / Request type (AOR,IER, or SER)
\char AOT_TYPE= 'IrsStare'           / Observation Template Type
\char AORLABEL= 'IRSS-3C 454.3 visit3 - 3C 454.3' / AOR Label
\char FOVNAME = 'IRS_Long-Lo_2nd_Order_2nd_Position' / Field of View Name
\char READMODE= 'RAW     '           / Readout Mode
\char 
\char           / PROPOSAL INFORMATION
\char 
\char OBSRVR  = 'Ann Wehrle'         / Observer Name
\char OBSRVRID=                14991 / Observer ID of Principal Investigator
\char PROCYCL =                    7 / Proposal Cycle
\char PROGID  =                  300 / Program ID
\char PROTITLE= 'A Second Huge Flare in Blazar 3C454.3' / Program Title
\char PROGCAT =                   31 / Program Category
\char 
\char           / TIME AND EXPOSURE INFORMATION
\char 
\char DATE_OBS= '2007-08-03T11:17:32.277' / Date & time at DCE start
\char MJD_OBS =        54315.4705125 / [days] MJD at DCE start (JD-2400000.5)
\char UTCS_OBS=        239411852.277 / [sec] J2000 ephem. time at DCE start
\char SCLK_OBS=         870607222.36 / [sec] SCLK time (since 1/1/1980) at DCE start
\char SAMPTIME=               1.0486 / [sec] Sample integration time
\char REQMODE =                    5 / ID for mode or type of request
\char EXPSTRTC=            870606994 / Exposure Start Timestamp Coarse
\char EXPSTRTF=                52165 / Exposure Start Timestamp Fine
\char GRPARVTC=            870607229 / [sec] Coarse Spacecraft Group Time
\char GRPARVTF=                    0 / [sec] Fine Spacecraft Group Time
\char AIRSCMDN=                   12 / Commanded number of DCEs for IRS
\char AIRS_DET=                    2 / Selected IRS detector for exposure command
\char AIRSEXPM=                    1 / Current Mode of the IRS Exp Manager
\char GRPTIME =               2.0972 / [sec] Group (w/ spin) integration time
\char DEADTIME=               6.2916 / [sec] Reset + boost(s) time
\char RAMPTIME=                14.68 / [sec] Ramp (total DCE) integration time
\char EXPTOT_T=               176.16 / [sec] Integr. time for all DCEs in exposure
\char AIRSERCT=                    0 / Number of IRS exposure errors
\char 
\char           / TARGET AND POINTING INFORMATION
\char 
\char OBJECT  = '3C 454.3'           / Target Name
\char OBJTYPE = 'TargetFixedSingle'  / Target Type
\char RA_HMS  = '22h53m59.4s'        / [hh:mm:ss.s] RA_SLT or CRVAL1 in sexagesimal
\char DEC_DMS = '+16d09m09s'         / [dd:mm:ss] DEC_SLT or CRVAL2 in sexagesimal
\char RA_RQST =           343.490625 / [deg] Commanded RA referenced to commanded FOV
\char DEC_RQST=           16.1482225 / [deg] Commanded Dec referenced to commanded FOV
\char PA_RQST =     55.9824462087025 / [deg] Requested pos. angle of axis 2 (E of N)
\char PM_RA   =                   0. / [arcsec/yr] Proper Motion in RA (J2000)
\char PM_DEC  =                   0. / [arcsec/yr] Proper Motion in Dec (J2000)
\char CRDER1  = 0.000300951423421221 / [deg] Uncertainty in RA of SI boresight
\char CRDER2  = 0.000300874727838434 / [deg] Uncertainty in DEC of SI boresight
\char SIGRA   =   0.0108796059155103 / [arcsec] RMS dispersion of RA over DCE
\char SIGDEC  =   0.0106259305454677 / [arcsec] RMS dispersion of DEC over DCE
\char SIGPA   =   0.0152262930100967 / [arcsec] RMS dispersion of PA over DCE
\char PTGDIFF =    0.799681642657098 / [arcsec] offset btwn actual and rqsted pntng
\char PTGDIFFX=    -0.61847536785257 / [arcsec] requested - actual pntg along axis 1
\char PTGDIFFY=    0.506932338875586 / [arcsec] requested - actual pntg along axis 2
\char RA_REF  =           343.490625 / [deg] Commanded RA (J2000) of ref. position
\char DEC_REF =           16.1482225 / [deg] Commanded Dec (J2000) of ref. position
\char USEDBPHF=                    T / T if Boresight Pointing History File was used.
\char RMS_JIT =  0.00637845824922124 / [arcsec] RMS jitter during DCE
\char RMS_JITY=  0.00408629490073654 / [arcsec] RMS jitter during DCE along Y
\char RMS_JITZ=  0.00489764470141241 / [arcsec] RMS jitter during DCE along Z
\char RA_FOV  =     343.490695862258 / [deg] RA at FOVID averaged over DCE
\char DEC_FOV =     16.1484339485753 / [deg] DEC at FOVID averaged over DCE
\char PA_FOV  =     57.1833279150536 / [deg] PA at FOVID averaged over DCE
\char RA_SLT  =     343.497357862058 / [deg] RA at slit center averaged over DCE
\char DEC_SLT =     16.1525609484515 / [deg] DEC at slit center averaged over DCE
\char PA_SLT  =     57.1851802483314 / [deg] PA at slit center averaged over DCE
\char CSDRADEC= 7.84501297809909E-06 / [deg] Costandard deviation in RA and Dec
\char CSD_JTYZ= -0.000402059857536345 / [arcsec] Costandard deviation of jitter in YZ
\char BPHFNAME= 'BPHF.0870566400.04.pntg' / Boresight Pointing History Filename
\char FOVVERSN= 'BodyFrames_FTU_22b.xls' / FOV/BodyFrames file version used
\char VHELCORR=                 25.2 / [km/sec] Correction to heliocentric velocity
\char VLSRCORR=                 32.9 / [km/sec] Correction to local standard of rest
\char SPTZR_X =      40614929.008523 / [km] Heliocentric x position
\char SPTZR_Y =    -134610900.612937 / [km] Heliocentric y position
\char SPTZR_Z =     -60057291.703281 / [km] Heliocentric z position
\char SPTZR_VX=            28.354917 / [km/sec] Heliocentric x velocity
\char SPTZR_VY=             6.735299 / [km/sec] Heliocentric y velocity
\char SPTZR_VZ=              3.46129 / [km/sec] Heliocentric z velocity
\char ET_OBS  =         239411917.46 / Ephemeris Time (seconds past J2000 epoch)
\char HMJD_OBS=        54315.4727302 / Corresponding Heliocen. Mod. Julian Date
\char 
\char 
\char           / PHOTOMETRY (IRS IMAGING)
\char 
\char BUNIT   = 'e-/sec  '           / Units of image data
\char 
\char           / SPECTROPHOTOMETRY IRS SL, LL (CHNLNUM 0, 2)
\char 
\char FLXCON01=            4898.3911 / [electrons/sec/Jy] Flux conversion Order 1
\char FLXERR01=                124.5 / Flux conversion uncertainties Order 1
\char FLXCON02=            4783.3545 / [electrons/sec/Jy] Flux conversion Order 2
\char FLXERR02=                124.5 / Flux conversion uncertainties Order 2
\char FLXCON03=             4936.832 / [electrons/sec/Jy] Flux conversion Bonus Order
\char FLXERR03=                124.5 / Flux conversion uncertainties Order 3
\char 
\char           / GENERAL MAPPING KEYWORDS
\char 
\char DBEXPOID=              6584855 / Currnet Exposure ID
\char 
\char           / IRS PEAKUP KEYWORDS
\char 
\char PKUPMODE= 'IRS     '           / Peakup mode (none, IRS, or PCRS)
\char PKUPACCU= 'High    '           / Peakup Accuracy (high, moderate,low)
\char PKUPFILT= 'BLUE    '           / Peakup filter (blue or red)
\char PKUPFLUX=                  32. / Flux density of peakup target for IRS [mJy] or
\char PKUPXTND=                    F / Extended source (T/F)
\char ISPUPOS =                    T / PU target given in absolute positions (T) or re
\char PKUPRA  =     343.291648196987 / [deg] RA peakup position
\char PKUPDEC =     16.5082927083332 / [deg] Dec peakup position
\char PM_PKRA =               -0.051 / [''/yr]Proper motion for RA peakup position
\char PM_PKDEC=               -0.037 / [''/yr]Proper motion for Dec peakup position
\char HP_CENQ =                    0 / Peakup centroid quality code
\char APKUPCEN=                    1 / Status of the peakup centroid
\char AXCNTRD1=                10801 / [centipixels] X value of the brightest centroid
\char AYCNTRD1=                 2827 / [centipixels] Y value of the brightest centroid
\char AXCNTRD2=                    0 / [centipixels] X value of the second brightest c
\char AYCNTRD2=                    0 / [centipixels] Y value of the second brightest c
\char AINTENS1=               155570 / [counts] Intensity value of the brightest centr
\char AINTENS2=                    0 / [counts] Intensity value of the second brightes
\char APKUPXCE=                10801 / [centipixels] X value of the centroid to be ret
\char APKUPYCE=                 2827 / [centipixels] Y value of the centroid to be ret
\char 
\char 
\char           / DATA FLOW KEYWORDS
\char 
\char DATE    = '2008-04-24T14:49:40' / [YYYY-MM-DDThh:mm:ss UTC] file creation date
\char AORKEY  = '24015360'           / AOR or EIR key. Astrnmy Obs Req/Instr Eng Req
\char EXPID   =                    7 / Exposure ID (0-9999)
\char DCENUM  =                   10 / DCE number (0-9999)
\char TLMGRPS =                    8 / Number of expected telemetry groups
\char FILE_VER=                    1 / Version of the raw file made by SIS
\char RAWNAME = 'IRSX.2.0024015360.0007.0010.01.mipl.fits' / Raw data file name
\char SIS_SVER= 'J5.3    '           / SIS SW VERsion
\char CPT_VER = '3.1.11  '           / Channel Param Table FOS version
\char CTD_VER = '3.0.94S '           / Cmded telemetry data version
\char EXPDFLAG=                    F / (T/F) expedited DCE
\char MISS_LCT=                    0 / Total Missed Line Cnt in this FITS
\char MANCPKT =                    F / T if this FITS is Missing Ancillary Data
\char MISSDATA=                    F / T if this FITS is Missing Image Data
\char PAONUM  =                 2521 / PAO Number
\char CAMPAIGN= 'IRSX008300'         / Campaign
\char DCEID   =             84060888 / Data-Collection-Event ID
\char DCEINSID=             17610675 / DCE Instance ID
\char DPID    =            210860497 / Data Product Instance ID
\char PIPENUM =                  201 / Pipeline Script Number
\char SOS_VER =                   1. / Data-Product Version
\char PLVID   =                   10 / Pipeline Version ID
\char CALID   =                    4 / CalTrans Version ID
\char ORIGIN0 = 'JPL_FOS '           / site where RAW FITS files was written
\char CREATOR0= 'J5.3    '           / SW system that created RAW FITS
\char 
\char GAIN1   =                  4.6 / e/DN conversion (readout channel 1)
\char GAIN2   =                  4.6 / e/DN conversion (readout channel 2)
\char GAIN3   =                  4.6 / e/DN conversion (readout channel 3)
\char GAIN4   =                  4.6 / e/DN conversion (readout channel 4)
\char BASECH1 =             36929.31 / Trimmed mean channel 1 signal in reference unil
\char BASECH2 =             38884.98 / Trimmed mean channel 2 signal in reference unil
\char BASECH3 =             37257.56 / Trimmed mean channel 3 signal in reference unil
\char BASECH4 =             34460.69 / Trimmed mean channel 4 signal in reference unil
\char 
\HISTORY PROCESS 2008/04/24 07:56:04
\HISTORY profile v3.6  (integrate (library) v1.31, nl_and_params v1.9)
\HISTORY INFILE = bcd_fp.fits
\HISTORY WAVSAMP_FILE = ./cal/wavsamp.tbl
\HISTORY FOVTABLE_FILE = ./cal/psf_fov.tbl
\HISTORY N_CUTS = 100,
\HISTORY BMASKFILE = bmask.fits
\HISTORY BMASKFILE_FATAL = 29056,
\HISTORY NAMELIST_FILE = ./cdf/profile.nl
\int CHNLNUM = 2
\int FOVID   = 45
\int ORDER1 = 2
\int ORDER2 = 3
|order    |wavelength       |angle      |x0        |y0        |x1        |y1        |x2        |y2        |x3        |y3        |x_ridge_r |y_ridge_r |x_ridge_l |y_ridge_l |
|int      |real             |real       |real      |real      |real      |real      |real      |real      |real      |real      |real      |real      |real      |real      |
 2         13.90000          -1.200000   95.27889   80.60396   61.28635   81.31601   61.26574   80.39252   95.25829   79.68048   72.6739    81.0775    72.6532    80.1540    
 2         13.98468          -1.200000   95.25829   79.68048   61.26574   80.39252   61.24607   79.46904   95.23861   78.75700   72.6532    80.1540    72.6336    79.2305    
 2         14.06935          -1.200000   95.23861   78.75700   61.24607   79.46904   61.22733   78.54556   95.21987   77.83351   72.6336    79.2305    72.6148    78.3070    
 2         14.15403          -1.200000   95.21987   77.83351   61.22733   78.54556   61.20953   77.62207   95.20207   76.91003   72.6148    78.3070    72.5970    77.3835    
 2         14.23871          -1.200000   95.20207   76.91003   61.20953   77.62207   61.19266   76.69859   95.18520   75.98655   72.5970    77.3835    72.5802    76.4601    
 2         14.32338          -1.200000   95.18520   75.98655   61.19266   76.69859   61.17673   75.77511   95.16927   75.06306   72.5802    76.4601    72.5642    75.5366    
 2         14.40806          -1.200000   95.16927   75.06306   61.17673   75.77511   61.16174   74.85162   95.15428   74.13958   72.5642    75.5366    72.5492    74.6131    
 2         14.49274          -1.200000   95.15428   74.13958   61.16174   74.85162   61.14767   73.92814   95.14022   73.21610   72.5492    74.6131    72.5352    73.6896    
 2         14.57741          -1.200000   95.14022   73.21610   61.14767   73.92814   61.13455   73.00466   95.12709   72.29261   72.5352    73.6896    72.5220    72.7661    
 2         14.66209          -1.200000   95.12709   72.29261   61.13455   73.00466   61.12236   72.08117   95.11490   71.36913   72.5220    72.7661    72.5099    71.8426    
 2         14.74677          -1.200000   95.11490   71.36913   61.12236   72.08117   61.11111   71.15769   95.10365   70.44565   72.5099    71.8426    72.4986    70.9192    
 2         14.83145          -1.200000   95.10365   70.44565   61.11111   71.15769   61.10079   70.23421   95.09333   69.52217   72.4986    70.9192    72.4883    69.9957    
 2         14.91612          -1.200000   95.09333   69.52217   61.10079   70.23421   61.09141   69.31072   95.08395   68.59868   72.4883    69.9957    72.4789    69.0722    
 2         15.00080          -1.200000   95.08395   68.59868   61.09141   69.31072   61.08296   68.38724   95.07550   67.67520   72.4789    69.0722    72.4705    68.1487    
 2         15.08548          -1.200000   95.07550   67.67520   61.08296   68.38724   61.07545   67.46376   95.06799   66.75172   72.4705    68.1487    72.4630    67.2252    
 2         15.17015          -1.200000   95.06799   66.75172   61.07545   67.46376   61.06887   66.54027   95.06141   65.82823   72.4630    67.2252    72.4564    66.3017    
 2         15.25483          -1.200000   95.06141   65.82823   61.06887   66.54027   61.06323   65.61679   95.05577   64.90475   72.4564    66.3017    72.4507    65.3783    
 2         15.33951          -1.200000   95.05577   64.90475   61.06323   65.61679   61.05853   64.69331   95.05107   63.98127   72.4507    65.3783    72.4460    64.4548    
 2         15.42418          -1.200000   95.05107   63.98127   61.05853   64.69331   61.05476   63.76982   95.04730   63.05778   72.4460    64.4548    72.4423    63.5313    
 2         15.50886          -1.200000   95.04730   63.05778   61.05476   63.76982   61.05192   62.84634   95.04447   62.13430   72.4423    63.5313    72.4394    62.6078    
 2         15.59354          -1.200000   95.04447   62.13430   61.05192   62.84634   61.05003   61.92286   95.04257   61.21082   72.4394    62.6078    72.4375    61.6843    
 2         15.67821          -1.200000   95.04257   61.21082   61.05003   61.92286   61.04906   60.99937   95.04161   60.28733   72.4375    61.6843    72.4366    60.7608    
 2         15.76289          -1.200000   95.04161   60.28733   61.04906   60.99937   61.04904   60.07589   95.04158   59.36385   72.4366    60.7608    72.4365    59.8374    
 2         15.84757          -1.200000   95.04158   59.36385   61.04904   60.07589   61.04994   59.15241   95.04249   58.44037   72.4365    59.8374    72.4374    58.9139    
 2         15.93224          -1.200000   95.04249   58.44037   61.04994   59.15241   61.05179   58.22892   95.04433   57.51688   72.4374    58.9139    72.4393    57.9904    
 2         16.01692          -1.200000   95.04433   57.51688   61.05179   58.22892   61.05457   57.30544   95.04711   56.59340   72.4393    57.9904    72.4421    57.0669    
 2         16.10160          -1.200000   95.04711   56.59340   61.05457   57.30544   61.05828   56.38196   95.05083   55.66992   72.4421    57.0669    72.4458    56.1434    
 2         16.18628          -1.200000   95.05083   55.66992   61.05828   56.38196   61.06293   55.45847   95.05548   54.74643   72.4458    56.1434    72.4504    55.2199    
 2         16.27095          -1.200000   95.05548   54.74643   61.06293   55.45847   61.06852   54.53499   95.06106   53.82295   72.4504    55.2199    72.4560    54.2965    
 2         16.35563          -1.200000   95.06106   53.82295   61.06852   54.53499   61.07504   53.61151   95.06758   52.89947   72.4560    54.2965    72.4625    53.3730    
 2         16.44031          -1.200000   95.06758   52.89947   61.07504   53.61151   61.08250   52.68803   95.07504   51.97598   72.4625    53.3730    72.4700    52.4495    
 2         16.52498          -1.200000   95.07504   51.97598   61.08250   52.68803   61.09089   51.76454   95.08343   51.05250   72.4700    52.4495    72.4784    51.5260    
 2         16.60966          -1.200000   95.08343   51.05250   61.09089   51.76454   61.10022   50.84106   95.09276   50.12902   72.4784    51.5260    72.4877    50.6025    
 2         16.69434          -1.200000   95.09276   50.12902   61.10022   50.84106   61.11048   49.91758   95.10303   49.20553   72.4877    50.6025    72.4980    49.6790    
 2         16.77901          -1.200000   95.10303   49.20553   61.11048   49.91758   61.12168   48.99409   95.11423   48.28205   72.4980    49.6790    72.5092    48.7556    
 2         16.86369          -1.200000   95.11423   48.28205   61.12168   48.99409   61.13382   48.07061   95.12636   47.35857   72.5092    48.7556    72.5213    47.8321    
 2         16.94837          -1.200000   95.12636   47.35857   61.13382   48.07061   61.14689   47.14713   95.13943   46.43508   72.5213    47.8321    72.5344    46.9086    
 2         17.03304          -1.200000   95.13943   46.43508   61.14689   47.14713   61.16089   46.22364   95.15344   45.51160   72.5344    46.9086    72.5484    45.9851    
 2         17.11772          -1.200000   95.15344   45.51160   61.16089   46.22364   61.17584   45.30016   95.16838   44.58812   72.5484    45.9851    72.5633    45.0616    
 2         17.20240          -1.200000   95.16838   44.58812   61.17584   45.30016   61.19171   44.37668   95.18426   43.66463   72.5633    45.0616    72.5792    44.1381    
 2         17.28707          -1.200000   95.18426   43.66463   61.19171   44.37668   61.20853   43.45319   95.20107   42.74115   72.5792    44.1381    72.5960    43.2147    
 2         17.37175          -1.200000   95.20107   42.74115   61.20853   43.45319   61.22627   42.52971   95.21882   41.81767   72.5960    43.2147    72.6138    42.2912    
 2         17.45643          -1.200000   95.21882   41.81767   61.22627   42.52971   61.24496   41.60623   95.23750   40.89418   72.6138    42.2912    72.6325    41.3677    
 2         17.54111          -1.200000   95.23750   40.89418   61.24496   41.60623   61.26458   40.68274   95.25712   39.97070   72.6325    41.3677    72.6521    40.4442    
 2         17.62578          -1.200000   95.25712   39.97070   61.26458   40.68274   61.28513   39.75926   95.27767   39.04722   72.6521    40.4442    72.6726    39.5207    
 2         17.71046          -1.200000   95.27767   39.04722   61.28513   39.75926   61.30662   38.83578   95.29917   38.12373   72.6726    39.5207    72.6941    38.5972    
 2         17.79514          -1.200000   95.29917   38.12373   61.30662   38.83578   61.32905   37.91229   95.32159   37.20025   72.6941    38.5972    72.7166    37.6738    
 2         17.87981          -1.200000   95.32159   37.20025   61.32905   37.91229   61.35241   36.98881   95.34495   36.27677   72.7166    37.6738    72.7399    36.7503    
 2         17.96449          -1.200000   95.34495   36.27677   61.35241   36.98881   61.37671   36.06533   95.36925   35.35328   72.7399    36.7503    72.7642    35.8268    
 2         18.04917          -1.200000   95.36925   35.35328   61.37671   36.06533   61.40194   35.14184   95.39448   34.42980   72.7642    35.8268    72.7894    34.9033    
 2         18.13384          -1.200000   95.39448   34.42980   61.40194   35.14184   61.42811   34.21836   95.42065   33.50632   72.7894    34.9033    72.8156    33.9798    
 2         18.21852          -1.200000   95.42065   33.50632   61.42811   34.21836   61.45521   33.29488   95.44775   32.58283   72.8156    33.9798    72.8427    33.0563    
 2         18.30320          -1.200000   95.44775   32.58283   61.45521   33.29488   61.48325   32.37139   95.47579   31.65935   72.8427    33.0563    72.8708    32.1329    
 2         18.38787          -1.200000   95.47579   31.65935   61.48325   32.37139   61.51223   31.44791   95.50477   30.73587   72.8708    32.1329    72.8997    31.2094    
 2         18.47255          -1.200000   95.50477   30.73587   61.51223   31.44791   61.54214   30.52443   95.53468   29.81238   72.8997    31.2094    72.9296    30.2859    
 2         18.55723          -1.200000   95.53468   29.81238   61.54214   30.52443   61.57298   29.60094   95.56552   28.88890   72.9296    30.2859    72.9605    29.3624    
 2         18.64190          -1.200000   95.56552   28.88890   61.57298   29.60094   61.60476   28.67746   95.59731   27.96542   72.9605    29.3624    72.9923    28.4389    
 2         18.72658          -1.200000   95.59731   27.96542   61.60476   28.67746   61.63748   27.75398   95.63002   27.04193   72.9923    28.4389    73.0250    27.5154    
 2         18.81126          -1.200000   95.63002   27.04193   61.63748   27.75398   61.67113   26.83049   95.66367   26.11845   73.0250    27.5154    73.0586    26.5920    
 2         18.89594          -1.200000   95.66367   26.11845   61.67113   26.83049   61.70572   25.90701   95.69826   25.19497   73.0586    26.5920    73.0932    25.6685    
 2         18.98061          -1.200000   95.69826   25.19497   61.70572   25.90701   61.74124   24.98353   95.73379   24.27148   73.0932    25.6685    73.1287    24.7450    
 2         19.06529          -1.200000   95.73379   24.27148   61.74124   24.98353   61.77770   24.06004   95.77025   23.34800   73.1287    24.7450    73.1652    23.8215    
 2         19.14997          -1.200000   95.77025   23.34800   61.77770   24.06004   61.81510   23.13656   95.80764   22.42452   73.1652    23.8215    73.2026    22.8980    
 2         19.23464          -1.200000   95.80764   22.42452   61.81510   23.13656   61.85343   22.21308   95.84597   21.50103   73.2026    22.8980    73.2409    21.9745    
 2         19.31932          -1.200000   95.84597   21.50103   61.85343   22.21308   61.89269   21.28959   95.88524   20.57755   73.2409    21.9745    73.2802    21.0511    
 2         19.40400          -1.200000   95.88524   20.57755   61.89269   21.28959   61.93289   20.36611   95.92544   19.65407   73.2802    21.0511    73.3204    20.1276    
 2         19.48867          -1.200000   95.92544   19.65407   61.93289   20.36611   61.97403   19.44263   95.96657   18.73058   73.3204    20.1276    73.3615    19.2041    
 2         19.57335          -1.200000   95.96657   18.73058   61.97403   19.44263   62.01610   18.51914   96.00865   17.80710   73.3615    19.2041    73.4036    18.2806    
 2         19.65803          -1.200000   96.00865   17.80710   62.01610   18.51914   62.05911   17.59566   96.05165   16.88362   73.4036    18.2806    73.4466    17.3571    
 2         19.74270          -1.200000   96.05165   16.88362   62.05911   17.59566   62.10306   16.67218   96.09560   15.96013   73.4466    17.3571    73.4906    16.4336    
 2         19.82738          -1.200000   96.09560   15.96013   62.10306   16.67218   62.14793   15.74869   96.14048   15.03665   73.4906    16.4336    73.5354    15.5102    
 2         19.91206          -1.200000   96.14048   15.03665   62.14793   15.74869   62.19375   14.82521   96.18629   14.11317   73.5354    15.5102    73.5813    14.5867    
 2         19.99673          -1.200000   96.18629   14.11317   62.19375   14.82521   62.24050   13.90173   96.23304   13.18968   73.5813    14.5867    73.6280    13.6632    
 2         20.08141          -1.200000   96.23304   13.18968   62.24050   13.90173   62.28818   12.97824   96.28073   12.26620   73.6280    13.6632    73.6757    12.7397    
 2         20.16609          -1.200000   96.28073   12.26620   62.28818   12.97824   62.33681   12.05476   96.32935   11.34272   73.6757    12.7397    73.7243    11.8162    
 2         20.25077          -1.200000   96.32935   11.34272   62.33681   12.05476   62.38636   11.13128   96.37891   10.41924   73.7243    11.8162    73.7739    10.8927    
 2         20.33544          -1.200000   96.37891   10.41924   62.38636   11.13128   62.43685   10.20779   96.42940   9.49575    73.7739    10.8927    73.8244    9.9693     
 2         20.42012          -1.200000   96.42940   9.49575    62.43685   10.20779   62.48828   9.28431    96.48083   8.57227    73.8244    9.9693     73.8758    9.0458     
 2         20.50480          -1.200000   96.48083   8.57227    62.48828   9.28431    62.54065   8.36083    96.53319   7.64879    73.8758    9.0458     73.9281    8.1223     
 2         20.58947          -1.200000   96.53319   7.64879    62.54065   8.36083    62.59394   7.43734    96.58649   6.72530    73.9281    8.1223     73.9814    7.1988     
 2         20.67415          -1.200000   96.58649   6.72530    62.59394   7.43734    62.64818   6.51386    96.64072   5.80182    73.9814    7.1988     74.0357    6.2753     
 2         20.75883          -1.200000   96.64072   5.80182    62.64818   6.51386    62.70335   5.59038    96.69589   4.87834    74.0357    6.2753     74.0909    5.3518     
 2         20.84350          -1.200000   96.69589   4.87834    62.70335   5.59038    62.75945   4.66689    96.75200   3.95485    74.0909    5.3518     74.1469    4.4284     
 2         20.92818          -1.200000   96.75200   3.95485    62.75945   4.66689    62.81650   3.74341    96.80904   3.03137    74.1469    4.4284     74.2040    3.5049     
 2         21.01286          -1.200000   96.80904   3.03137    62.81650   3.74341    62.87447   2.81993    96.86701   2.10789    74.2040    3.5049     74.2620    2.5814     
 2         21.09753          -1.200000   96.86701   2.10789    62.87447   2.81993    62.93338   1.89644    96.92593   1.18440    74.2620    2.5814     74.3209    1.6579     
 2         21.18221          -1.200000   96.92593   1.18440    62.93338   1.89644    62.99323   0.97296    96.98577   0.26092    74.3209    1.6579     74.3807    0.7344     
 2         21.26689          -1.200000   96.98577   0.26092    62.99323   0.97296    63.05402   0.04948    97.04656   -0.66256   74.3807    0.7344     74.4415    -0.1891    
 3         19.23464          -1.200000   97.59006   127.96369  63.59752   128.67573  63.52893   127.75225  97.52147   127.04021  74.9850    128.4372   74.9164    127.5137   
 3         19.40400          -1.200000   97.52147   127.04021  63.52893   127.75225  63.46128   126.82876  97.45382   126.11672  74.9164    127.5137   74.8488    126.5902   
 3         19.57335          -1.200000   97.45382   126.11672  63.46128   126.82876  63.39456   125.90528  97.38711   125.19324  74.8488    126.5902   74.7821    125.6667   
 3         19.74270          -1.200000   97.38711   125.19324  63.39456   125.90528  63.32878   124.98180  97.32133   124.26976  74.7821    125.6667   74.7163    124.7433   
 3         19.91206          -1.200000   97.32133   124.26976  63.32878   124.98180  63.26394   124.05831  97.25648   123.34627  74.7163    124.7433   74.6514    123.8198   
 3         20.08141          -1.200000   97.25648   123.34627  63.26394   124.05831  63.20003   123.13483  97.19257   122.42279  74.6514    123.8198   74.5875    122.8963   
 3         20.25077          -1.200000   97.19257   122.42279  63.20003   123.13483  63.13705   122.21135  97.12960   121.49930  74.5875    122.8963   74.5246    121.9728   
 3         20.42012          -1.200000   97.12960   121.49930  63.13705   122.21135  63.07502   121.28786  97.06756   120.57582  74.5246    121.9728   74.4625    121.0493   
 3         20.58947          -1.200000   97.06756   120.57582  63.07502   121.28786  63.01391   120.36438  97.00646   119.65234  74.4625    121.0493   74.4014    120.1258   
 3         20.75883          -1.200000   97.00646   119.65234  63.01391   120.36438  62.95375   119.44090  96.94629   118.72885  74.4014    120.1258   74.3412    119.2024   
 3         20.92818          -1.200000   96.94629   118.72885  62.95375   119.44090  62.89451   118.51741  96.88706   117.80537  74.3412    119.2024   74.2820    118.2789   
 3         21.09753          -1.200000   96.88706   117.80537  62.89451   118.51741  62.83622   117.59393  96.82876   116.88189  74.2820    118.2789   74.2237    117.3554   
 3         21.26689          -1.200000   96.82876   116.88189  62.83622   117.59393  62.77886   116.67045  96.77140   115.95840  74.2237    117.3554   74.1664    116.4319   
 3         21.43624          -1.200000   96.77140   115.95840  62.77886   116.67045  62.72243   115.74696  96.71497   115.03492  74.1664    116.4319   74.1099    115.5084   
 3         21.60560          -1.200000   96.71497   115.03492  62.72243   115.74696  62.66694   114.82348  96.65948   114.11144  74.1099    115.5084   74.0544    114.5849   
 1         19.57335          -1.200000   59.49268   126.99794  25.50014   127.70998  25.44635   126.74740  59.43889   126.03536  36.8876    127.4714   36.8339    126.5089   
 1         19.74270          -1.200000   59.43889   126.03536  25.44635   126.74740  25.39330   125.78535  59.38585   125.07331  36.8339    126.5089   36.7808    125.5468   
 1         19.91206          -1.200000   59.38585   125.07331  25.39330   125.78535  25.34101   124.82384  59.33356   124.11179  36.7808    125.5468   36.7285    124.5853   
 1         20.08141          -1.200000   59.33356   124.11179  25.34101   124.82384  25.28948   123.86285  59.28202   123.15081  36.7285    124.5853   36.6770    123.6243   
 1         20.25077          -1.200000   59.28202   123.15081  25.28948   123.86285  25.23869   122.90239  59.23123   122.19035  36.6770    123.6243   36.6262    122.6639   
 1         20.42012          -1.200000   59.23123   122.19035  25.23869   122.90239  25.18866   121.94247  59.18120   121.23042  36.6262    122.6639   36.5762    121.7039   
 1         20.58947          -1.200000   59.18120   121.23042  25.18866   121.94247  25.13937   120.98307  59.13192   120.27103  36.5762    121.7039   36.5269    120.7445   
 1         20.75883          -1.200000   59.13192   120.27103  25.13937   120.98307  25.09084   120.02420  59.08339   119.31216  36.5269    120.7445   36.4783    119.7857   
 1         20.92818          -1.200000   59.08339   119.31216  25.09084   120.02420  25.04307   119.06587  59.03561   118.35383  36.4783    119.7857   36.4306    118.8273   
 1         21.09753          -1.200000   59.03561   118.35383  25.04307   119.06587  24.99604   118.10807  58.98858   117.39602  36.4306    118.8273   36.3835    117.8695   
 1         21.26689          -1.200000   58.98858   117.39602  24.99604   118.10807  24.94976   117.15079  58.94231   116.43875  36.3835    117.8695   36.3373    116.9123   
 1         21.43624          -1.200000   58.94231   116.43875  24.94976   117.15079  24.90424   116.19405  58.89678   115.48201  36.3373    116.9123   36.2917    115.9555   
 1         21.60560          -1.200000   58.89678   115.48201  24.90424   116.19405  24.85947   115.23784  58.85201   114.52580  36.2917    115.9555   36.2470    114.9993   
 1         21.77495          -1.200000   58.85201   114.52580  24.85947   115.23784  24.81545   114.28216  58.80799   113.57012  36.2470    114.9993   36.2029    114.0436   
 1         21.94430          -1.200000   58.80799   113.57012  24.81545   114.28216  24.77219   113.32701  58.76473   112.61497  36.2029    114.0436   36.1597    113.0885   
 1         22.11366          -1.200000   58.76473   112.61497  24.77219   113.32701  24.72967   112.37239  58.72221   111.66035  36.1597    113.0885   36.1172    112.1339   
 1         22.28301          -1.200000   58.72221   111.66035  24.72967   112.37239  24.68791   111.41830  58.68045   110.70626  36.1172    112.1339   36.0754    111.1798   
 1         22.45236          -1.200000   58.68045   110.70626  24.68791   111.41830  24.64690   110.46474  58.63944   109.75270  36.0754    111.1798   36.0344    110.2262   
 1         22.62172          -1.200000   58.63944   109.75270  24.64690   110.46474  24.60664   109.51171  58.59918   108.79967  36.0344    110.2262   35.9941    109.2732   
 1         22.79107          -1.200000   58.59918   108.79967  24.60664   109.51171  24.56713   108.55922  58.55967   107.84718  35.9941    109.2732   35.9546    108.3207   
 1         22.96043          -1.200000   58.55967   107.84718  24.56713   108.55922  24.52837   107.60725  58.52092   106.89521  35.9546    108.3207   35.9159    107.3687   
 1         23.12978          -1.200000   58.52092   106.89521  24.52837   107.60725  24.49037   106.65582  58.48291   105.94377  35.9159    107.3687   35.8779    106.4173   
 1         23.29913          -1.200000   58.48291   105.94377  24.49037   106.65582  24.45312   105.70491  58.44566   104.99287  35.8779    106.4173   35.8406    105.4664   
 1         23.46849          -1.200000   58.44566   104.99287  24.45312   105.70491  24.41662   104.75454  58.40916   104.04249  35.8406    105.4664   35.8041    104.5160   
 1         23.63784          -1.200000   58.40916   104.04249  24.41662   104.75454  24.38087   103.80469  58.37342   103.09265  35.8041    104.5160   35.7684    103.5662   
 1         23.80719          -1.200000   58.37342   103.09265  24.38087   103.80469  24.34588   102.85538  58.33842   102.14334  35.7684    103.5662   35.7334    102.6168   
 1         23.97655          -1.200000   58.33842   102.14334  24.34588   102.85538  24.31163   101.90660  58.30418   101.19455  35.7334    102.6168   35.6991    101.6681   
 1         24.14590          -1.200000   58.30418   101.19455  24.31163   101.90660  24.27814   100.95835  58.27068   100.24630  35.6991    101.6681   35.6656    100.7198   
 1         24.31526          -1.200000   58.27068   100.24630  24.27814   100.95835  24.24540   100.01062  58.23795   99.29858   35.6656    100.7198   35.6329    99.7721    
 1         24.48461          -1.200000   58.23795   99.29858   24.24540   100.01062  24.21341   99.06343   58.20596   98.35139   35.6329    99.7721    35.6009    98.8249    
 1         24.65396          -1.200000   58.20596   98.35139   24.21341   99.06343   24.18218   98.11677   58.17472   97.40473   35.6009    98.8249    35.5697    97.8782    
 1         24.82332          -1.200000   58.17472   97.40473   24.18218   98.11677   24.15169   97.17065   58.14424   96.45860   35.5697    97.8782    35.5392    96.9321    
 1         24.99267          -1.200000   58.14424   96.45860   24.15169   97.17065   24.12196   96.22505   58.11451   95.51300   35.5392    96.9321    35.5095    95.9865    
 1         25.16202          -1.200000   58.11451   95.51300   24.12196   96.22505   24.09298   95.27998   58.08553   94.56794   35.5095    95.9865    35.4805    95.0414    
 1         25.33138          -1.200000   58.08553   94.56794   24.09298   95.27998   24.06475   94.33544   58.05730   93.62340   35.4805    95.0414    35.4523    94.0969    
 1         25.50073          -1.200000   58.05730   93.62340   24.06475   94.33544   24.03728   93.39144   58.02982   92.67939   35.4523    94.0969    35.4248    93.1529    
 1         25.67009          -1.200000   58.02982   92.67939   24.03728   93.39144   24.01055   92.44796   58.00310   91.73592   35.4248    93.1529    35.3981    92.2094    
 1         25.83944          -1.200000   58.00310   91.73592   24.01055   92.44796   23.98458   91.50502   57.97712   90.79297   35.3981    92.2094    35.3721    91.2665    
 1         26.00879          -1.200000   57.97712   90.79297   23.98458   91.50502   23.95936   90.56260   57.95190   89.85056   35.3721    91.2665    35.3469    90.3241    
 1         26.17815          -1.200000   57.95190   89.85056   23.95936   90.56260   23.93489   89.62072   57.92744   88.90868   35.3469    90.3241    35.3224    89.3822    
 1         26.34750          -1.200000   57.92744   88.90868   23.93489   89.62072   23.91118   88.67936   57.90372   87.96732   35.3224    89.3822    35.2987    88.4408    
 1         26.51685          -1.200000   57.90372   87.96732   23.91118   88.67936   23.88821   87.73854   57.88075   87.02650   35.2987    88.4408    35.2757    87.5000    
 1         26.68621          -1.200000   57.88075   87.02650   23.88821   87.73854   23.86600   86.79825   57.85854   86.08621   35.2757    87.5000    35.2535    86.5597    
 1         26.85556          -1.200000   57.85854   86.08621   23.86600   86.79825   23.84454   85.85849   57.83708   85.14645   35.2535    86.5597    35.2320    85.6200    
 1         27.02492          -1.200000   57.83708   85.14645   23.84454   85.85849   23.82383   84.91926   57.81637   84.20722   35.2320    85.6200    35.2113    84.6807    
 1         27.19427          -1.200000   57.81637   84.20722   23.82383   84.91926   23.80387   83.98056   57.79642   83.26852   35.2113    84.6807    35.1914    83.7420    
 1         27.36362          -1.200000   57.79642   83.26852   23.80387   83.98056   23.78467   83.04239   57.77721   82.33035   35.1914    83.7420    35.1722    82.8039    
 1         27.53298          -1.200000   57.77721   82.33035   23.78467   83.04239   23.76621   82.10475   57.75876   81.39271   35.1722    82.8039    35.1537    81.8662    
 1         27.70233          -1.200000   57.75876   81.39271   23.76621   82.10475   23.74851   81.16764   57.74106   80.45560   35.1537    81.8662    35.1360    80.9291    
 1         27.87168          -1.200000   57.74106   80.45560   23.74851   81.16764   23.73156   80.23107   57.72411   79.51902   35.1360    80.9291    35.1191    79.9925    
 1         28.04104          -1.200000   57.72411   79.51902   23.73156   80.23107   23.71537   79.29502   57.70791   78.58298   35.1191    79.9925    35.1029    79.0565    
 1         28.21039          -1.200000   57.70791   78.58298   23.71537   79.29502   23.69992   78.35951   57.69246   77.64746   35.1029    79.0565    35.0874    78.1210    
 1         28.37975          -1.200000   57.69246   77.64746   23.69992   78.35951   23.68523   77.42452   57.67777   76.71248   35.0874    78.1210    35.0727    77.1860    
 1         28.54910          -1.200000   57.67777   76.71248   23.68523   77.42452   23.67129   76.49007   57.66383   75.77802   35.0727    77.1860    35.0588    76.2515    
 1         28.71845          -1.200000   57.66383   75.77802   23.67129   76.49007   23.65810   75.55614   57.65064   74.84410   35.0588    76.2515    35.0456    75.3176    
 1         28.88781          -1.200000   57.65064   74.84410   23.65810   75.55614   23.64566   74.62275   57.63820   73.91071   35.0456    75.3176    35.0332    74.3842    
 1         29.05716          -1.200000   57.63820   73.91071   23.64566   74.62275   23.63397   73.68989   57.62652   72.97784   35.0332    74.3842    35.0215    73.4514    
 1         29.22651          -1.200000   57.62652   72.97784   23.63397   73.68989   23.62304   72.75755   57.61558   72.04551   35.0215    73.4514    35.0105    72.5190    
 1         29.39587          -1.200000   57.61558   72.04551   23.62304   72.75755   23.61286   71.82575   57.60540   71.11371   35.0105    72.5190    35.0004    71.5872    
 1         29.56522          -1.200000   57.60540   71.11371   23.61286   71.82575   23.60343   70.89448   57.59597   70.18244   35.0004    71.5872    34.9909    70.6559    
 1         29.73458          -1.200000   57.59597   70.18244   23.60343   70.89448   23.59475   69.96374   57.58729   69.25170   34.9909    70.6559    34.9823    69.7252    
 1         29.90393          -1.200000   57.58729   69.25170   23.59475   69.96374   23.58682   69.03353   57.57937   68.32149   34.9823    69.7252    34.9743    68.7950    
 1         30.07328          -1.200000   57.57937   68.32149   23.58682   69.03353   23.57965   68.10386   57.57219   67.39181   34.9743    68.7950    34.9672    67.8653    
 1         30.24264          -1.200000   57.57219   67.39181   23.57965   68.10386   23.57323   67.17471   57.56577   66.46267   34.9672    67.8653    34.9607    66.9362    
 1         30.41199          -1.200000   57.56577   66.46267   23.57323   67.17471   23.56756   66.24609   57.56010   65.53405   34.9607    66.9362    34.9551    66.0076    
 1         30.58134          -1.200000   57.56010   65.53405   23.56756   66.24609   23.56264   65.31801   57.55518   64.60596   34.9551    66.0076    34.9501    65.0795    
 1         30.75070          -1.200000   57.55518   64.60596   23.56264   65.31801   23.55847   64.39045   57.55102   63.67841   34.9501    65.0795    34.9460    64.1519    
 1         30.92005          -1.200000   57.55102   63.67841   23.55847   64.39045   23.55506   63.46342   57.54760   62.75138   34.9460    64.1519    34.9426    63.2249    
 1         31.08941          -1.200000   57.54760   62.75138   23.55506   63.46342   23.55240   62.53693   57.54494   61.82489   34.9426    63.2249    34.9399    62.2984    
 1         31.25876          -1.200000   57.54494   61.82489   23.55240   62.53693   23.55049   61.61097   57.54303   60.89892   34.9399    62.2984    34.9380    61.3724    
 1         31.42811          -1.200000   57.54303   60.89892   23.55049   61.61097   23.54933   60.68553   57.54187   59.97349   34.9380    61.3724    34.9368    60.4470    
 1         31.59747          -1.200000   57.54187   59.97349   23.54933   60.68553   23.54892   59.76063   57.54146   59.04859   34.9368    60.4470    34.9364    59.5221    
 1         31.76682          -1.200000   57.54146   59.04859   23.54892   59.76063   23.54927   58.83626   57.54181   58.12422   34.9364    59.5221    34.9368    58.5977    
 1         31.93617          -1.200000   57.54181   58.12422   23.54927   58.83626   23.55036   57.91242   57.54291   57.20038   34.9368    58.5977    34.9379    57.6739    
 1         32.10553          -1.200000   57.54291   57.20038   23.55036   57.91242   23.55221   56.98911   57.54476   56.27707   34.9379    57.6739    34.9397    56.7506    
 1         32.27488          -1.200000   57.54476   56.27707   23.55221   56.98911   23.55481   56.06633   57.54736   55.35429   34.9397    56.7506    34.9423    55.8278    
 1         32.44424          -1.200000   57.54736   55.35429   23.55481   56.06633   23.55817   55.14408   57.55071   54.43204   34.9423    55.8278    34.9457    54.9055    
 1         32.61359          -1.200000   57.55071   54.43204   23.55817   55.14408   23.56227   54.22236   57.55482   53.51032   34.9457    54.9055    34.9498    53.9838    
 1         32.78294          -1.200000   57.55482   53.51032   23.56227   54.22236   23.56713   53.30117   57.55967   52.58913   34.9498    53.9838    34.9546    53.0626    
 1         32.95230          -1.200000   57.55967   52.58913   23.56713   53.30117   23.57274   52.38052   57.56528   51.66847   34.9546    53.0626    34.9602    52.1420    
 1         33.12165          -1.200000   57.56528   51.66847   23.57274   52.38052   23.57910   51.46039   57.57164   50.74835   34.9602    52.1420    34.9666    51.2219    
 1         33.29100          -1.200000   57.57164   50.74835   23.57910   51.46039   23.58621   50.54079   57.57875   49.82875   34.9666    51.2219    34.9737    50.3023    
 1         33.46036          -1.200000   57.57875   49.82875   23.58621   50.54079   23.59408   49.62173   57.58662   48.90969   34.9737    50.3023    34.9816    49.3832    
 1         33.62971          -1.200000   57.58662   48.90969   23.59408   49.62173   23.60269   48.70319   57.59524   47.99115   34.9816    49.3832    34.9902    48.4647    
 1         33.79907          -1.200000   57.59524   47.99115   23.60269   48.70319   23.61206   47.78519   57.60460   47.07315   34.9902    48.4647    34.9996    47.5467    
 1         33.96842          -1.200000   57.60460   47.07315   23.61206   47.78519   23.62218   46.86772   57.61472   46.15567   34.9996    47.5467    35.0097    46.6292    
 1         34.13777          -1.200000   57.61472   46.15567   23.62218   46.86772   23.63305   45.95077   57.62560   45.23873   35.0097    46.6292    35.0206    45.7122    
 1         34.30713          -1.200000   57.62560   45.23873   23.63305   45.95077   23.64468   45.03436   57.63722   44.32232   35.0206    45.7122    35.0322    44.7958    
 1         34.47648          -1.200000   57.63722   44.32232   23.64468   45.03436   23.65705   44.11848   57.64960   43.40644   35.0322    44.7958    35.0446    43.8799    
 1         34.64583          -1.200000   57.64960   43.40644   23.65705   44.11848   23.67018   43.20313   57.66273   42.49109   35.0446    43.8799    35.0577    42.9646    
 1         34.81519          -1.200000   57.66273   42.49109   23.67018   43.20313   23.68406   42.28831   57.67661   41.57627   35.0577    42.9646    35.0716    42.0498    
 1         34.98454          -1.200000   57.67661   41.57627   23.68406   42.28831   23.69870   41.37402   57.69124   40.66198   35.0716    42.0498    35.0862    41.1355    
 1         35.15390          -1.200000   57.69124   40.66198   23.69870   41.37402   23.71408   40.46026   57.70662   39.74822   35.0862    41.1355    35.1016    40.2217    
 1         35.32325          -1.200000   57.70662   39.74822   23.71408   40.46026   23.73022   39.54704   57.72276   38.83499   35.1016    40.2217    35.1177    39.3085    
 1         35.49260          -1.200000   57.72276   38.83499   23.73022   39.54704   23.74710   38.63434   57.73965   37.92230   35.1177    39.3085    35.1346    38.3958    
 1         35.66196          -1.200000   57.73965   37.92230   23.74710   38.63434   23.76474   37.72217   57.75729   37.01013   35.1346    38.3958    35.1522    37.4836    
 1         35.83131          -1.200000   57.75729   37.01013   23.76474   37.72217   23.78313   36.81054   57.77568   36.09849   35.1522    37.4836    35.1706    36.5720    
 1         36.00066          -1.200000   57.77568   36.09849   23.78313   36.81054   23.80228   35.89943   57.79482   35.18739   35.1706    36.5720    35.1898    35.6609    
 1         36.17002          -1.200000   57.79482   35.18739   23.80228   35.89943   23.82217   34.98886   57.81472   34.27681   35.1898    35.6609    35.2097    34.7503    
 1         36.33937          -1.200000   57.81472   34.27681   23.82217   34.98886   23.84282   34.07881   57.83536   33.36677   35.2097    34.7503    35.2303    33.8403    
 1         36.50873          -1.200000   57.83536   33.36677   23.84282   34.07881   23.86422   33.16930   57.85676   32.45726   35.2303    33.8403    35.2517    32.9308    
 1         36.67808          -1.200000   57.85676   32.45726   23.86422   33.16930   23.88637   32.26032   57.87891   31.54827   35.2517    32.9308    35.2739    32.0218    
 1         36.84743          -1.200000   57.87891   31.54827   23.88637   32.26032   23.90928   31.35187   57.90182   30.63982   35.2739    32.0218    35.2968    31.1133    
 1         37.01679          -1.200000   57.90182   30.63982   23.90928   31.35187   23.93293   30.44394   57.92547   29.73190   35.2968    31.1133    35.3204    30.2054    
 1         37.18614          -1.200000   57.92547   29.73190   23.93293   30.44394   23.95734   29.53655   57.94988   28.82451   35.3204    30.2054    35.3448    29.2980    
 1         37.35549          -1.200000   57.94988   28.82451   23.95734   29.53655   23.98250   28.62969   57.97504   27.91765   35.3448    29.2980    35.3700    28.3912    
 1         37.52485          -1.200000   57.97504   27.91765   23.98250   28.62969   24.00841   27.72336   58.00095   27.01132   35.3700    28.3912    35.3959    27.4848    
 1         37.69420          -1.200000   58.00095   27.01132   24.00841   27.72336   24.03507   26.81757   58.02761   26.10552   35.3959    27.4848    35.4226    26.5790    
 1         37.86356          -1.200000   58.02761   26.10552   24.03507   26.81757   24.06249   25.91230   58.05503   25.20026   35.4226    26.5790    35.4500    25.6738    
 1         38.03291          -1.200000   58.05503   25.20026   24.06249   25.91230   24.09065   25.00756   58.08320   24.29552   35.4500    25.6738    35.4782    24.7690    
 1         38.20226          -1.200000   58.08320   24.29552   24.09065   25.00756   24.11957   24.10335   58.11211   23.39131   35.4782    24.7690    35.5071    23.8648    
 1         38.37162          -1.200000   58.11211   23.39131   24.11957   24.10335   24.14924   23.19968   58.14178   22.48764   35.5071    23.8648    35.5367    22.9611    
 1         38.54097          -1.200000   58.14178   22.48764   24.14924   23.19968   24.17966   22.29653   58.17221   21.58449   35.5367    22.9611    35.5672    22.0580    
 1         38.71032          -1.200000   58.17221   21.58449   24.17966   22.29653   24.21084   21.39392   58.20338   20.68188   35.5672    22.0580    35.5983    21.1554    
 1         38.87968          -1.200000   58.20338   20.68188   24.21084   21.39392   24.24277   20.49184   58.23531   19.77979   35.5983    21.1554    35.6303    20.2533    
 1         39.04903          -1.200000   58.23531   19.77979   24.24277   20.49184   24.27544   19.59028   58.26799   18.87824   35.6303    20.2533    35.6629    19.3517    
 1         39.21839          -1.200000   58.26799   18.87824   24.27544   19.59028   24.30887   18.68926   58.30142   17.97722   35.6629    19.3517    35.6964    18.4507    
 1         39.38774          -1.200000   58.30142   17.97722   24.30887   18.68926   24.34306   17.78877   58.33560   17.07673   35.6964    18.4507    35.7306    17.5502    
 1         39.55709          -1.200000   58.33560   17.07673   24.34306   17.78877   24.37799   16.88881   58.37053   16.17676   35.7306    17.5502    35.7655    16.6503    
 1         39.72645          -1.200000   58.37053   16.17676   24.37799   16.88881   24.41368   15.98938   58.40622   15.27733   35.7655    16.6503    35.8012    15.7508    
 1         39.89580          -1.200000   58.40622   15.27733   24.41368   15.98938   24.45012   15.09048   58.44266   14.37843   35.8012    15.7508    35.8376    14.8519    
 1         40.06515          -1.200000   58.44266   14.37843   24.45012   15.09048   24.48731   14.19211   58.47985   13.48006   35.8376    14.8519    35.8748    13.9536    
 1         40.23451          -1.200000   58.47985   13.48006   24.48731   14.19211   24.52525   13.29427   58.51779   12.58223   35.8748    13.9536    35.9128    13.0557    
 1         40.40386          -1.200000   58.51779   12.58223   24.52525   13.29427   24.56394   12.39696   58.55648   11.68492   35.9128    13.0557    35.9514    12.1584    
 1         40.57322          -1.200000   58.55648   11.68492   24.56394   12.39696   24.60339   11.50018   58.59593   10.78814   35.9514    12.1584    35.9909    11.2616    
 1         40.74257          -1.200000   58.59593   10.78814   24.60339   11.50018   24.64359   10.60394   58.63613   9.89189    35.9909    11.2616    36.0311    10.3654    
 1         40.91192          -1.200000   58.63613   9.89189    24.64359   10.60394   24.68453   9.70822    58.67708   8.99618    36.0311    10.3654    36.0720    9.4697     
 1         41.08128          -1.200000   58.67708   8.99618    24.68453   9.70822    24.72624   8.81304    58.71878   8.10099    36.0720    9.4697     36.1137    8.5745     
 1         41.25063          -1.200000   58.71878   8.10099    24.72624   8.81304    24.76869   7.91838    58.76123   7.20634    36.1137    8.5745     36.1562    7.6798     
 1         41.41998          -1.200000   58.76123   7.20634    24.76869   7.91838    24.81190   7.02426    58.80444   6.31222    36.1562    7.6798     36.1994    6.7857     
 1         41.58934          -1.200000   58.80444   6.31222    24.81190   7.02426    24.85585   6.13066    58.84840   5.41862    36.1994    6.7857     36.2434    5.8921     
 1         41.75869          -1.200000   58.84840   5.41862    24.85585   6.13066    24.90056   5.23760    58.89311   4.52556    36.2434    5.8921     36.2881    4.9991     
 1         41.92805          -1.200000   58.89311   4.52556    24.90056   5.23760    24.94602   4.34507    58.93857   3.63303    36.2881    4.9991     36.3335    4.1065     
 1         42.09740          -1.200000   58.93857   3.63303    24.94602   4.34507    24.99224   3.45307    58.98478   2.74103    36.3335    4.1065     36.3797    3.2145     
 1         42.26675          -1.200000   58.98478   2.74103    24.99224   3.45307    25.03920   2.56160    59.03174   1.84956    36.3797    3.2145     36.4267    2.3231     
 1         42.43611          -1.200000   59.03174   1.84956    25.03920   2.56160    25.08692   1.67066    59.07946   0.95862    36.4267    2.3231     36.4744    1.4321     
 2         13.90000          -1.200000   95.27889   80.60396   61.28635   81.31601   61.26574   80.39252   95.25829   79.68048   72.6739    81.0775    72.6532    80.1540    
 2         13.98468          -1.200000   95.25829   79.68048   61.26574   80.39252   61.24607   79.46904   95.23861   78.75700   72.6532    80.1540    72.6336    79.2305    
 2         14.06935          -1.200000   95.23861   78.75700   61.24607   79.46904   61.22733   78.54556   95.21987   77.83351   72.6336    79.2305    72.6148    78.3070    
 2         14.15403          -1.200000   95.21987   77.83351   61.22733   78.54556   61.20953   77.62207   95.20207   76.91003   72.6148    78.3070    72.5970    77.3835    
 2         14.23871          -1.200000   95.20207   76.91003   61.20953   77.62207   61.19266   76.69859   95.18520   75.98655   72.5970    77.3835    72.5802    76.4601    
 2         14.32338          -1.200000   95.18520   75.98655   61.19266   76.69859   61.17673   75.77511   95.16927   75.06306   72.5802    76.4601    72.5642    75.5366    
 2         14.40806          -1.200000   95.16927   75.06306   61.17673   75.77511   61.16174   74.85162   95.15428   74.13958   72.5642    75.5366    72.5492    74.6131    
 2         14.49274          -1.200000   95.15428   74.13958   61.16174   74.85162   61.14767   73.92814   95.14022   73.21610   72.5492    74.6131    72.5352    73.6896    
 2         14.57741          -1.200000   95.14022   73.21610   61.14767   73.92814   61.13455   73.00466   95.12709   72.29261   72.5352    73.6896    72.5220    72.7661    
 2         14.66209          -1.200000   95.12709   72.29261   61.13455   73.00466   61.12236   72.08117   95.11490   71.36913   72.5220    72.7661    72.5099    71.8426    
 2         14.74677          -1.200000   95.11490   71.36913   61.12236   72.08117   61.11111   71.15769   95.10365   70.44565   72.5099    71.8426    72.4986    70.9192    
 2         14.83145          -1.200000   95.10365   70.44565   61.11111   71.15769   61.10079   70.23421   95.09333   69.52217   72.4986    70.9192    72.4883    69.9957    
 2         14.91612          -1.200000   95.09333   69.52217   61.10079   70.23421   61.09141   69.31072   95.08395   68.59868   72.4883    69.9957    72.4789    69.0722    
 2         15.00080          -1.200000   95.08395   68.59868   61.09141   69.31072   61.08296   68.38724   95.07550   67.67520   72.4789    69.0722    72.4705    68.1487    
 2         15.08548          -1.200000   95.07550   67.67520   61.08296   68.38724   61.07545   67.46376   95.06799   66.75172   72.4705    68.1487    72.4630    67.2252    
 2         15.17015          -1.200000   95.06799   66.75172   61.07545   67.46376   61.06887   66.54027   95.06141   65.82823   72.4630    67.2252    72.4564    66.3017    
 2         15.25483          -1.200000   95.06141   65.82823   61.06887   66.54027   61.06323   65.61679   95.05577   64.90475   72.4564    66.3017    72.4507    65.3783    
 2         15.33951          -1.200000   95.05577   64.90475   61.06323   65.61679   61.05853   64.69331   95.05107   63.98127   72.4507    65.3783    72.4460    64.4548    
 2         15.42418          -1.200000   95.05107   63.98127   61.05853   64.69331   61.05476   63.76982   95.04730   63.05778   72.4460    64.4548    72.4423    63.5313    
 2         15.50886          -1.200000   95.04730   63.05778   61.05476   63.76982   61.05192   62.84634   95.04447   62.13430   72.4423    63.5313    72.4394    62.6078    
 2         15.59354          -1.200000   95.04447   62.13430   61.05192   62.84634   61.05003   61.92286   95.04257   61.21082   72.4394    62.6078    72.4375    61.6843    
 2         15.67821          -1.200000   95.04257   61.21082   61.05003   61.92286   61.04906   60.99937   95.04161   60.28733   72.4375    61.6843    72.4366    60.7608    
 2         15.76289          -1.200000   95.04161   60.28733   61.04906   60.99937   61.04904   60.07589   95.04158   59.36385   72.4366    60.7608    72.4365    59.8374    
 2         15.84757          -1.200000   95.04158   59.36385   61.04904   60.07589   61.04994   59.15241   95.04249   58.44037   72.4365    59.8374    72.4374    58.9139    
 2         15.93224          -1.200000   95.04249   58.44037   61.04994   59.15241   61.05179   58.22892   95.04433   57.51688   72.4374    58.9139    72.4393    57.9904    
 2         16.01692          -1.200000   95.04433   57.51688   61.05179   58.22892   61.05457   57.30544   95.04711   56.59340   72.4393    57.9904    72.4421    57.0669    
 2         16.10160          -1.200000   95.04711   56.59340   61.05457   57.30544   61.05828   56.38196   95.05083   55.66992   72.4421    57.0669    72.4458    56.1434    
 2         16.18628          -1.200000   95.05083   55.66992   61.05828   56.38196   61.06293   55.45847   95.05548   54.74643   72.4458    56.1434    72.4504    55.2199    
 2         16.27095          -1.200000   95.05548   54.74643   61.06293   55.45847   61.06852   54.53499   95.06106   53.82295   72.4504    55.2199    72.4560    54.2965    
 2         16.35563          -1.200000   95.06106   53.82295   61.06852   54.53499   61.07504   53.61151   95.06758   52.89947   72.4560    54.2965    72.4625    53.3730    
 2         16.44031          -1.200000   95.06758   52.89947   61.07504   53.61151   61.08250   52.68803   95.07504   51.97598   72.4625    53.3730    72.4700    52.4495    
 2         16.52498          -1.200000   95.07504   51.97598   61.08250   52.68803   61.09089   51.76454   95.08343   51.05250   72.4700    52.4495    72.4784    51.5260    
 2         16.60966          -1.200000   95.08343   51.05250   61.09089   51.76454   61.10022   50.84106   95.09276   50.12902   72.4784    51.5260    72.4877    50.6025    
 2         16.69434          -1.200000   95.09276   50.12902   61.10022   50.84106   61.11048   49.91758   95.10303   49.20553   72.4877    50.6025    72.4980    49.6790    
 2         16.77901          -1.200000   95.10303   49.20553   61.11048   49.91758   61.12168   48.99409   95.11423   48.28205   72.4980    49.6790    72.5092    48.7556    
 2         16.86369          -1.200000   95.11423   48.28205   61.12168   48.99409   61.13382   48.07061   95.12636   47.35857   72.5092    48.7556    72.5213    47.8321    
 2         16.94837          -1.200000   95.12636   47.35857   61.13382   48.07061   61.14689   47.14713   95.13943   46.43508   72.5213    47.8321    72.5344    46.9086    
 2         17.03304          -1.200000   95.13943   46.43508   61.14689   47.14713   61.16089   46.22364   95.15344   45.51160   72.5344    46.9086    72.5484    45.9851    
 2         17.11772          -1.200000   95.15344   45.51160   61.16089   46.22364   61.17584   45.30016   95.16838   44.58812   72.5484    45.9851    72.5633    45.0616    
 2         17.20240          -1.200000   95.16838   44.58812   61.17584   45.30016   61.19171   44.37668   95.18426   43.66463   72.5633    45.0616    72.5792    44.1381    
 2         17.28707          -1.200000   95.18426   43.66463   61.19171   44.37668   61.20853   43.45319   95.20107   42.74115   72.5792    44.1381    72.5960    43.2147    
 2         17.37175          -1.200000   95.20107   42.74115   61.20853   43.45319   61.22627   42.52971   95.21882   41.81767   72.5960    43.2147    72.6138    42.2912    
 2         17.45643          -1.200000   95.21882   41.81767   61.22627   42.52971   61.24496   41.60623   95.23750   40.89418   72.6138    42.2912    72.6325    41.3677    
 2         17.54111          -1.200000   95.23750   40.89418   61.24496   41.60623   61.26458   40.68274   95.25712   39.97070   72.6325    41.3677    72.6521    40.4442    
 2         17.62578          -1.200000   95.25712   39.97070   61.26458   40.68274   61.28513   39.75926   95.27767   39.04722   72.6521    40.4442    72.6726    39.5207    
 2         17.71046          -1.200000   95.27767   39.04722   61.28513   39.75926   61.30662   38.83578   95.29917   38.12373   72.6726    39.5207    72.6941    38.5972    
 2         17.79514          -1.200000   95.29917   38.12373   61.30662   38.83578   61.32905   37.91229   95.32159   37.20025   72.6941    38.5972    72.7166    37.6738    
 2         17.87981          -1.200000   95.32159   37.20025   61.32905   37.91229   61.35241   36.98881   95.34495   36.27677   72.7166    37.6738    72.7399    36.7503    
 2         17.96449          -1.200000   95.34495   36.27677   61.35241   36.98881   61.37671   36.06533   95.36925   35.35328   72.7399    36.7503    72.7642    35.8268    
 2         18.04917          -1.200000   95.36925   35.35328   61.37671   36.06533   61.40194   35.14184   95.39448   34.42980   72.7642    35.8268    72.7894    34.9033    
 2         18.13384          -1.200000   95.39448   34.42980   61.40194   35.14184   61.42811   34.21836   95.42065   33.50632   72.7894    34.9033    72.8156    33.9798    
 2         18.21852          -1.200000   95.42065   33.50632   61.42811   34.21836   61.45521   33.29488   95.44775   32.58283   72.8156    33.9798    72.8427    33.0563    
 2         18.30320          -1.200000   95.44775   32.58283   61.45521   33.29488   61.48325   32.37139   95.47579   31.65935   72.8427    33.0563    72.8708    32.1329    
 2         18.38787          -1.200000   95.47579   31.65935   61.48325   32.37139   61.51223   31.44791   95.50477   30.73587   72.8708    32.1329    72.8997    31.2094    
 2         18.47255          -1.200000   95.50477   30.73587   61.51223   31.44791   61.54214   30.52443   95.53468   29.81238   72.8997    31.2094    72.9296    30.2859    
 2         18.55723          -1.200000   95.53468   29.81238   61.54214   30.52443   61.57298   29.60094   95.56552   28.88890   72.9296    30.2859    72.9605    29.3624    
 2         18.64190          -1.200000   95.56552   28.88890   61.57298   29.60094   61.60476   28.67746   95.59731   27.96542   72.9605    29.3624    72.9923    28.4389    
 2         18.72658          -1.200000   95.59731   27.96542   61.60476   28.67746   61.63748   27.75398   95.63002   27.04193   72.9923    28.4389    73.0250    27.5154    
 2         18.81126          -1.200000   95.63002   27.04193   61.63748   27.75398   61.67113   26.83049   95.66367   26.11845   73.0250    27.5154    73.0586    26.5920    
 2         18.89594          -1.200000   95.66367   26.11845   61.67113   26.83049   61.70572   25.90701   95.69826   25.19497   73.0586    26.5920    73.0932    25.6685    
 2         18.98061          -1.200000   95.69826   25.19497   61.70572   25.90701   61.74124   24.98353   95.73379   24.27148   73.0932    25.6685    73.1287    24.7450    
 2         19.06529          -1.200000   95.73379   24.27148   61.74124   24.98353   61.77770   24.06004   95.77025   23.34800   73.1287    24.7450    73.1652    23.8215    
 2         19.14997          -1.200000   95.77025   23.34800   61.77770   24.06004   61.81510   23.13656   95.80764   22.42452   73.1652    23.8215    73.2026    22.8980    
 2         19.23464          -1.200000   95.80764   22.42452   61.81510   23.13656   61.85343   22.21308   95.84597   21.50103   73.2026    22.8980    73.2409    21.9745    
 2         19.31932          -1.200000   95.84597   21.50103   61.85343   22.21308   61.89269   21.28959   95.88524   20.57755   73.2409    21.9745    73.2802    21.0511    
 2         19.40400          -1.200000   95.88524   20.57755   61.89269   21.28959   61.93289   20.36611   95.92544   19.65407   73.2802    21.0511    73.3204    20.1276    
 2         19.48867          -1.200000   95.92544   19.65407   61.93289   20.36611   61.97403   19.44263   95.96657   18.73058   73.3204    20.1276    73.3615    19.2041    
 2         19.57335          -1.200000   95.96657   18.73058   61.97403   19.44263   62.01610   18.51914   96.00865   17.80710   73.3615    19.2041    73.4036    18.2806    
 2         19.65803          -1.200000   96.00865   17.80710   62.01610   18.51914   62.05911   17.59566   96.05165   16.88362   73.4036    18.2806    73.4466    17.3571    
 2         19.74270          -1.200000   96.05165   16.88362   62.05911   17.59566   62.10306   16.67218   96.09560   15.96013   73.4466    17.3571    73.4906    16.4336    
 2         19.82738          -1.200000   96.09560   15.96013   62.10306   16.67218   62.14793   15.74869   96.14048   15.03665   73.4906    16.4336    73.5354    15.5102    
 2         19.91206          -1.200000   96.14048   15.03665   62.14793   15.74869   62.19375   14.82521   96.18629   14.11317   73.5354    15.5102    73.5813    14.5867    
 2         19.99673          -1.200000   96.18629   14.11317   62.19375   14.82521   62.24050   13.90173   96.23304   13.18968   73.5813    14.5867    73.6280    13.6632    
 2         20.08141          -1.200000   96.23304   13.18968   62.24050   13.90173   62.28818   12.97824   96.28073   12.26620   73.6280    13.6632    73.6757    12.7397    
 2         20.16609          -1.200000   96.28073   12.26620   62.28818   12.97824   62.33681   12.05476   96.32935   11.34272   73.6757    12.7397    73.7243    11.8162    
 2         20.25077          -1.200000   96.32935   11.34272   62.33681   12.05476   62.38636   11.13128   96.37891   10.41924   73.7243    11.8162    73.7739    10.8927    
 2         20.33544          -1.200000   96.37891   10.41924   62.38636   11.13128   62.43685   10.20779   96.42940   9.49575    73.7739    10.8927    73.8244    9.9693     
 2         20.42012          -1.200000   96.42940   9.49575    62.43685   10.20779   62.48828   9.28431    96.48083   8.57227    73.8244    9.9693     73.8758    9.0458     
 2         20.50480          -1.200000   96.48083   8.57227    62.48828   9.28431    62.54065   8.36083    96.53319   7.64879    73.8758    9.0458     73.9281    8.1223     
 2         20.58947          -1.200000   96.53319   7.64879    62.54065   8.36083    62.59394   7.43734    96.58649   6.72530    73.9281    8.1223     73.9814    7.1988     
 2         20.67415          -1.200000   96.58649   6.72530    62.59394   7.43734    62.64818   6.51386    96.64072   5.80182    73.9814    7.1988     74.0357    6.2753     
 2         20.75883          -1.200000   96.64072   5.80182    62.64818   6.51386    62.70335   5.59038    96.69589   4.87834    74.0357    6.2753     74.0909    5.3518     
 2         20.84350          -1.200000   96.69589   4.87834    62.70335   5.59038    62.75945   4.66689    96.75200   3.95485    74.0909    5.3518     74.1469    4.4284     
 2         20.92818          -1.200000   96.75200   3.95485    62.75945   4.66689    62.81650   3.74341    96.80904   3.03137    74.1469    4.4284     74.2040    3.5049     
 2         21.01286          -1.200000   96.80904   3.03137    62.81650   3.74341    62.87447   2.81993    96.86701   2.10789    74.2040    3.5049     74.2620    2.5814     
 2         21.09753          -1.200000   96.86701   2.10789    62.87447   2.81993    62.93338   1.89644    96.92593   1.18440    74.2620    2.5814     74.3209    1.6579     
 2         21.18221          -1.200000   96.92593   1.18440    62.93338   1.89644    62.99323   0.97296    96.98577   0.26092    74.3209    1.6579     74.3807    0.7344     
 2         21.26689          -1.200000   96.98577   0.26092    62.99323   0.97296    63.05402   0.04948    97.04656   -0.66256   74.3807    0.7344     74.4415    -0.1891    
 3         19.23464          -1.200000   97.59006   127.96369  63.59752   128.67573  63.52893   127.75225  97.52147   127.04021  74.9850    128.4372   74.9164    127.5137   
 3         19.40400          -1.200000   97.52147   127.04021  63.52893   127.75225  63.46128   126.82876  97.45382   126.11672  74.9164    127.5137   74.8488    126.5902   
 3         19.57335          -1.200000   97.45382   126.11672  63.46128   126.82876  63.39456   125.90528  97.38711   125.19324  74.8488    126.5902   74.7821    125.6667   
 3         19.74270          -1.200000   97.38711   125.19324  63.39456   125.90528  63.32878   124.98180  97.32133   124.26976  74.7821    125.6667   74.7163    124.7433   
 3         19.91206          -1.200000   97.32133   124.26976  63.32878   124.98180  63.26394   124.05831  97.25648   123.34627  74.7163    124.7433   74.6514    123.8198   
 3         20.08141          -1.200000   97.25648   123.34627  63.26394   124.05831  63.20003   123.13483  97.19257   122.42279  74.6514    123.8198   74.5875    122.8963   
 3         20.25077          -1.200000   97.19257   122.42279  63.20003   123.13483  63.13705   122.21135  97.12960   121.49930  74.5875    122.8963   74.5246    121.9728   
 3         20.42012          -1.200000   97.12960   121.49930  63.13705   122.21135  63.07502   121.28786  97.06756   120.57582  74.5246    121.9728   74.4625    121.0493   
 3         20.58947          -1.200000   97.06756   120.57582  63.07502   121.28786  63.01391   120.36438  97.00646   119.65234  74.4625    121.0493   74.4014    120.1258   
 3         20.75883          -1.200000   97.00646   119.65234  63.01391   120.36438  62.95375   119.44090  96.94629   118.72885  74.4014    120.1258   74.3412    119.2024   
 3         20.92818          -1.200000   96.94629   118.72885  62.95375   119.44090  62.89451   118.51741  96.88706   117.80537  74.3412    119.2024   74.2820    118.2789   
 3         21.09753          -1.200000   96.88706   117.80537  62.89451   118.51741  62.83622   117.59393  96.82876   116.88189  74.2820    118.2789   74.2237    117.3554   
 3         21.26689          -1.200000   96.82876   116.88189  62.83622   117.59393  62.77886   116.67045  96.77140   115.95840  74.2237    117.3554   74.1664    116.4319   
 3         21.43624          -1.200000   96.77140   115.95840  62.77886   116.67045  62.72243   115.74696  96.71497   115.03492  74.1664    116.4319   74.1099    115.5084   
 3         21.60560          -1.200000   96.71497   115.03492  62.72243   115.74696  62.66694   114.82348  96.65948   114.11144  74.1099    115.5084   74.0544    114.5849   
 1         19.57335          -1.200000   59.49268   126.99794  25.50014   127.70998  25.44635   126.74740  59.43889   126.03536  36.8876    127.4714   36.8339    126.5089   
 1         19.74270          -1.200000   59.43889   126.03536  25.44635   126.74740  25.39330   125.78535  59.38585   125.07331  36.8339    126.5089   36.7808    125.5468   
 1         19.91206          -1.200000   59.38585   125.07331  25.39330   125.78535  25.34101   124.82384  59.33356   124.11179  36.7808    125.5468   36.7285    124.5853   
 1         20.08141          -1.200000   59.33356   124.11179  25.34101   124.82384  25.28948   123.86285  59.28202   123.15081  36.7285    124.5853   36.6770    123.6243   
 1         20.25077          -1.200000   59.28202   123.15081  25.28948   123.86285  25.23869   122.90239  59.23123   122.19035  36.6770    123.6243   36.6262    122.6639   
 1         20.42012          -1.200000   59.23123   122.19035  25.23869   122.90239  25.18866   121.94247  59.18120   121.23042  36.6262    122.6639   36.5762    121.7039   
 1         20.58947          -1.200000   59.18120   121.23042  25.18866   121.94247  25.13937   120.98307  59.13192   120.27103  36.5762    121.7039   36.5269    120.7445   
 1         20.75883          -1.200000   59.13192   120.27103  25.13937   120.98307  25.09084   120.02420  59.08339   119.31216  36.5269    120.7445   36.4783    119.7857   
 1         20.92818          -1.200000   59.08339   119.31216  25.09084   120.02420  25.04307   119.06587  59.03561   118.35383  36.4783    119.7857   36.4306    118.8273   
 1         21.09753          -1.200000   59.03561   118.35383  25.04307   119.06587  24.99604   118.10807  58.98858   117.39602  36.4306    118.8273   36.3835    117.8695   
 1         21.26689          -1.200000   58.98858   117.39602  24.99604   118.10807  24.94976   117.15079  58.94231   116.43875  36.3835    117.8695   36.3373    116.9123   
 1         21.43624          -1.200000   58.94231   116.43875  24.94976   117.15079  24.90424   116.19405  58.89678   115.48201  36.3373    116.9123   36.2917    115.9555   
 1         21.60560          -1.200000   58.89678   115.48201  24.90424   116.19405  24.85947   115.23784  58.85201   114.52580  36.2917    115.9555   36.2470    114.9993   
 1         21.77495          -1.200000   58.85201   114.52580  24.85947   115.23784  24.81545   114.28216  58.80799   113.57012  36.2470    114.9993   36.2029    114.0436   
 1         21.94430          -1.200000   58.80799   113.57012  24.81545   114.28216  24.77219   113.32701  58.76473   112.61497  36.2029    114.0436   36.1597    113.0885   
 1         22.11366          -1.200000   58.76473   112.61497  24.77219   113.32701  24.72967   112.37239  58.72221   111.66035  36.1597    113.0885   36.1172    112.1339   
 1         22.28301          -1.200000   58.72221   111.66035  24.72967   112.37239  24.68791   111.41830  58.68045   110.70626  36.1172    112.1339   36.0754    111.1798   
 1         22.45236          -1.200000   58.68045   110.70626  24.68791   111.41830  24.64690   110.46474  58.63944   109.75270  36.0754    111.1798   36.0344    110.2262   
 1         22.62172          -1.200000   58.63944   109.75270  24.64690   110.46474  24.60664   109.51171  58.59918   108.79967  36.0344    110.2262   35.9941    109.2732   
 1         22.79107          -1.200000   58.59918   108.79967  24.60664   109.51171  24.56713   108.55922  58.55967   107.84718  35.9941    109.2732   35.9546    108.3207   
 1         22.96043          -1.200000   58.55967   107.84718  24.56713   108.55922  24.52837   107.60725  58.52092   106.89521  35.9546    108.3207   35.9159    107.3687   
 1         23.12978          -1.200000   58.52092   106.89521  24.52837   107.60725  24.49037   106.65582  58.48291   105.94377  35.9159    107.3687   35.8779    106.4173   
 1         23.29913          -1.200000   58.48291   105.94377  24.49037   106.65582  24.45312   105.70491  58.44566   104.99287  35.8779    106.4173   35.8406    105.4664   
 1         23.46849          -1.200000   58.44566   104.99287  24.45312   105.70491  24.41662   104.75454  58.40916   104.04249  35.8406    105.4664   35.8041    104.5160   
 1         23.63784          -1.200000   58.40916   104.04249  24.41662   104.75454  24.38087   103.80469  58.37342   103.09265  35.8041    104.5160   35.7684    103.5662   
 1         23.80719          -1.200000   58.37342   103.09265  24.38087   103.80469  24.34588   102.85538  58.33842   102.14334  35.7684    103.5662   35.7334    102.6168   
 1         23.97655          -1.200000   58.33842   102.14334  24.34588   102.85538  24.31163   101.90660  58.30418   101.19455  35.7334    102.6168   35.6991    101.6681   
 1         24.14590          -1.200000   58.30418   101.19455  24.31163   101.90660  24.27814   100.95835  58.27068   100.24630  35.6991    101.6681   35.6656    100.7198   
 1         24.31526          -1.200000   58.27068   100.24630  24.27814   100.95835  24.24540   100.01062  58.23795   99.29858   35.6656    100.7198   35.6329    99.7721    
 1         24.48461          -1.200000   58.23795   99.29858   24.24540   100.01062  24.21341   99.06343   58.20596   98.35139   35.6329    99.7721    35.6009    98.8249    
 1         24.65396          -1.200000   58.20596   98.35139   24.21341   99.06343   24.18218   98.11677   58.17472   97.40473   35.6009    98.8249    35.5697    97.8782    
 1         24.82332          -1.200000   58.17472   97.40473   24.18218   98.11677   24.15169   97.17065   58.14424   96.45860   35.5697    97.8782    35.5392    96.9321    
 1         24.99267          -1.200000   58.14424   96.45860   24.15169   97.17065   24.12196   96.22505   58.11451   95.51300   35.5392    96.9321    35.5095    95.9865    
 1         25.16202          -1.200000   58.11451   95.51300   24.12196   96.22505   24.09298   95.27998   58.08553   94.56794   35.5095    95.9865    35.4805    95.0414    
 1         25.33138          -1.200000   58.08553   94.56794   24.09298   95.27998   24.06475   94.33544   58.05730   93.62340   35.4805    95.0414    35.4523    94.0969    
 1         25.50073          -1.200000   58.05730   93.62340   24.06475   94.33544   24.03728   93.39144   58.02982   92.67939   35.4523    94.0969    35.4248    93.1529    
 1         25.67009          -1.200000   58.02982   92.67939   24.03728   93.39144   24.01055   92.44796   58.00310   91.73592   35.4248    93.1529    35.3981    92.2094    
 1         25.83944          -1.200000   58.00310   91.73592   24.01055   92.44796   23.98458   91.50502   57.97712   90.79297   35.3981    92.2094    35.3721    91.2665    
 1         26.00879          -1.200000   57.97712   90.79297   23.98458   91.50502   23.95936   90.56260   57.95190   89.85056   35.3721    91.2665    35.3469    90.3241    
 1         26.17815          -1.200000   57.95190   89.85056   23.95936   90.56260   23.93489   89.62072   57.92744   88.90868   35.3469    90.3241    35.3224    89.3822    
 1         26.34750          -1.200000   57.92744   88.90868   23.93489   89.62072   23.91118   88.67936   57.90372   87.96732   35.3224    89.3822    35.2987    88.4408    
 1         26.51685          -1.200000   57.90372   87.96732   23.91118   88.67936   23.88821   87.73854   57.88075   87.02650   35.2987    88.4408    35.2757    87.5000    
 1         26.68621          -1.200000   57.88075   87.02650   23.88821   87.73854   23.86600   86.79825   57.85854   86.08621   35.2757    87.5000    35.2535    86.5597    
 1         26.85556          -1.200000   57.85854   86.08621   23.86600   86.79825   23.84454   85.85849   57.83708   85.14645   35.2535    86.5597    35.2320    85.6200    
 1         27.02492          -1.200000   57.83708   85.14645   23.84454   85.85849   23.82383   84.91926   57.81637   84.20722   35.2320    85.6200    35.2113    84.6807    
 1         27.19427          -1.200000   57.81637   84.20722   23.82383   84.91926   23.80387   83.98056   57.79642   83.26852   35.2113    84.6807    35.1914    83.7420    
 1         27.36362          -1.200000   57.79642   83.26852   23.80387   83.98056   23.78467   83.04239   57.77721   82.33035   35.1914    83.7420    35.1722    82.8039    
 1         27.53298          -1.200000   57.77721   82.33035   23.78467   83.04239   23.76621   82.10475   57.75876   81.39271   35.1722    82.8039    35.1537    81.8662    
 1         27.70233          -1.200000   57.75876   81.39271   23.76621   82.10475   23.74851   81.16764   57.74106   80.45560   35.1537    81.8662    35.1360    80.9291    
 1         27.87168          -1.200000   57.74106   80.45560   23.74851   81.16764   23.73156   80.23107   57.72411   79.51902   35.1360    80.9291    35.1191    79.9925    
 1         28.04104          -1.200000   57.72411   79.51902   23.73156   80.23107   23.71537   79.29502   57.70791   78.58298   35.1191    79.9925    35.1029    79.0565    
 1         28.21039          -1.200000   57.70791   78.58298   23.71537   79.29502   23.69992   78.35951   57.69246   77.64746   35.1029    79.0565    35.0874    78.1210    
 1         28.37975          -1.200000   57.69246   77.64746   23.69992   78.35951   23.68523   77.42452   57.67777   76.71248   35.0874    78.1210    35.0727    77.1860    
 1         28.54910          -1.200000   57.67777   76.71248   23.68523   77.42452   23.67129   76.49007   57.66383   75.77802   35.0727    77.1860    35.0588    76.2515    
 1         28.71845          -1.200000   57.66383   75.77802   23.67129   76.49007   23.65810   75.55614   57.65064   74.84410   35.0588    76.2515    35.0456    75.3176    
 1         28.88781          -1.200000   57.65064   74.84410   23.65810   75.55614   23.64566   74.62275   57.63820   73.91071   35.0456    75.3176    35.0332    74.3842    
 1         29.05716          -1.200000   57.63820   73.91071   23.64566   74.62275   23.63397   73.68989   57.62652   72.97784   35.0332    74.3842    35.0215    73.4514    
 1         29.22651          -1.200000   57.62652   72.97784   23.63397   73.68989   23.62304   72.75755   57.61558   72.04551   35.0215    73.4514    35.0105    72.5190    
 1         29.39587          -1.200000   57.61558   72.04551   23.62304   72.75755   23.61286   71.82575   57.60540   71.11371   35.0105    72.5190    35.0004    71.5872    
 1         29.56522          -1.200000   57.60540   71.11371   23.61286   71.82575   23.60343   70.89448   57.59597   70.18244   35.0004    71.5872    34.9909    70.6559    
 1         29.73458          -1.200000   57.59597   70.18244   23.60343   70.89448   23.59475   69.96374   57.58729   69.25170   34.9909    70.6559    34.9823    69.7252    
 1         29.90393          -1.200000   57.58729   69.25170   23.59475   69.96374   23.58682   69.03353   57.57937   68.32149   34.9823    69.7252    34.9743    68.7950    
 1         30.07328          -1.200000   57.57937   68.32149   23.58682   69.03353   23.57965   68.10386   57.57219   67.39181   34.9743    68.7950    34.9672    67.8653    
 1         30.24264          -1.200000   57.57219   67.39181   23.57965   68.10386   23.57323   67.17471   57.56577   66.46267   34.9672    67.8653    34.9607    66.9362    
 1         30.41199          -1.200000   57.56577   66.46267   23.57323   67.17471   23.56756   66.24609   57.56010   65.53405   34.9607    66.9362    34.9551    66.0076    
 1         30.58134          -1.200000   57.56010   65.53405   23.56756   66.24609   23.56264   65.31801   57.55518   64.60596   34.9551    66.0076    34.9501    65.0795    
 1         30.75070          -1.200000   57.55518   64.60596   23.56264   65.31801   23.55847   64.39045   57.55102   63.67841   34.9501    65.0795    34.9460    64.1519    
 1         30.92005          -1.200000   57.55102   63.67841   23.55847   64.39045   23.55506   63.46342   57.54760   62.75138   34.9460    64.1519    34.9426    63.2249    
 1         31.08941          -1.200000   57.54760   62.75138   23.55506   63.46342   23.55240   62.53693   57.54494   61.82489   34.9426    63.2249    34.9399    62.2984    
 1         31.25876          -1.200000   57.54494   61.82489   23.55240   62.53693   23.55049   61.61097   57.54303   60.89892   34.9399    62.2984    34.9380    61.3724    
 1         31.42811          -1.200000   57.54303   60.89892   23.55049   61.61097   23.54933   60.68553   57.54187   59.97349   34.9380    61.3724    34.9368    60.4470    
 1         31.59747          -1.200000   57.54187   59.97349   23.54933   60.68553   23.54892   59.76063   57.54146   59.04859   34.9368    60.4470    34.9364    59.5221    
 1         31.76682          -1.200000   57.54146   59.04859   23.54892   59.76063   23.54927   58.83626   57.54181   58.12422   34.9364    59.5221    34.9368    58.5977    
 1         31.93617          -1.200000   57.54181   58.12422   23.54927   58.83626   23.55036   57.91242   57.54291   57.20038   34.9368    58.5977    34.9379    57.6739    
 1         32.10553          -1.200000   57.54291   57.20038   23.55036   57.91242   23.55221   56.98911   57.54476   56.27707   34.9379    57.6739    34.9397    56.7506    
 1         32.27488          -1.200000   57.54476   56.27707   23.55221   56.98911   23.55481   56.06633   57.54736   55.35429   34.9397    56.7506    34.9423    55.8278    
 1         32.44424          -1.200000   57.54736   55.35429   23.55481   56.06633   23.55817   55.14408   57.55071   54.43204   34.9423    55.8278    34.9457    54.9055    
 1         32.61359          -1.200000   57.55071   54.43204   23.55817   55.14408   23.56227   54.22236   57.55482   53.51032   34.9457    54.9055    34.9498    53.9838    
 1         32.78294          -1.200000   57.55482   53.51032   23.56227   54.22236   23.56713   53.30117   57.55967   52.58913   34.9498    53.9838    34.9546    53.0626    
 1         32.95230          -1.200000   57.55967   52.58913   23.56713   53.30117   23.57274   52.38052   57.56528   51.66847   34.9546    53.0626    34.9602    52.1420    
 1         33.12165          -1.200000   57.56528   51.66847   23.57274   52.38052   23.57910   51.46039   57.57164   50.74835   34.9602    52.1420    34.9666    51.2219    
 1         33.29100          -1.200000   57.57164   50.74835   23.57910   51.46039   23.58621   50.54079   57.57875   49.82875   34.9666    51.2219    34.9737    50.3023    
 1         33.46036          -1.200000   57.57875   49.82875   23.58621   50.54079   23.59408   49.62173   57.58662   48.90969   34.9737    50.3023    34.9816    49.3832    
 1         33.62971          -1.200000   57.58662   48.90969   23.59408   49.62173   23.60269   48.70319   57.59524   47.99115   34.9816    49.3832    34.9902    48.4647    
 1         33.79907          -1.200000   57.59524   47.99115   23.60269   48.70319   23.61206   47.78519   57.60460   47.07315   34.9902    48.4647    34.9996    47.5467    
 1         33.96842          -1.200000   57.60460   47.07315   23.61206   47.78519   23.62218   46.86772   57.61472   46.15567   34.9996    47.5467    35.0097    46.6292    
 1         34.13777          -1.200000   57.61472   46.15567   23.62218   46.86772   23.63305   45.95077   57.62560   45.23873   35.0097    46.6292    35.0206    45.7122    
 1         34.30713          -1.200000   57.62560   45.23873   23.63305   45.95077   23.64468   45.03436   57.63722   44.32232   35.0206    45.7122    35.0322    44.7958    
 1         34.47648          -1.200000   57.63722   44.32232   23.64468   45.03436   23.65705   44.11848   57.64960   43.40644   35.0322    44.7958    35.0446    43.8799    
 1         34.64583          -1.200000   57.64960   43.40644   23.65705   44.11848   23.67018   43.20313   57.66273   42.49109   35.0446    43.8799    35.0577    42.9646    
 1         34.81519          -1.200000   57.66273   42.49109   23.67018   43.20313   23.68406   42.28831   57.67661   41.57627   35.0577    42.9646    35.0716    42.0498    
 1         34.98454          -1.200000   57.67661   41.57627   23.68406   42.28831   23.69870   41.37402   57.69124   40.66198   35.0716    42.0498    35.0862    41.1355    
 1         35.15390          -1.200000   57.69124   40.66198   23.69870   41.37402   23.71408   40.46026   57.70662   39.74822   35.0862    41.1355    35.1016    40.2217    
 1         35.32325          -1.200000   57.70662   39.74822   23.71408   40.46026   23.73022   39.54704   57.72276   38.83499   35.1016    40.2217    35.1177    39.3085    
 1         35.49260          -1.200000   57.72276   38.83499   23.73022   39.54704   23.74710   38.63434   57.73965   37.92230   35.1177    39.3085    35.1346    38.3958    
 1         35.66196          -1.200000   57.73965   37.92230   23.74710   38.63434   23.76474   37.72217   57.75729   37.01013   35.1346    38.3958    35.1522    37.4836    
 1         35.83131          -1.200000   57.75729   37.01013   23.76474   37.72217   23.78313   36.81054   57.77568   36.09849   35.1522    37.4836    35.1706    36.5720    
 1         36.00066          -1.200000   57.77568   36.09849   23.78313   36.81054   23.80228   35.89943   57.79482   35.18739   35.1706    36.5720    35.1898    35.6609    
 1         36.17002          -1.200000   57.79482   35.18739   23.80228   35.89943   23.82217   34.98886   57.81472   34.27681   35.1898    35.6609    35.2097    34.7503    
 1         36.33937          -1.200000   57.81472   34.27681   23.82217   34.98886   23.84282   34.07881   57.83536   33.36677   35.2097    34.7503    35.2303    33.8403    
 1         36.50873          -1.200000   57.83536   33.36677   23.84282   34.07881   23.86422   33.16930   57.85676   32.45726   35.2303    33.8403    35.2517    32.9308    
 1         36.67808          -1.200000   57.85676   32.45726   23.86422   33.16930   23.88637   32.26032   57.87891   31.54827   35.2517    32.9308    35.2739    32.0218    
 1         36.84743          -1.200000   57.87891   31.54827   23.88637   32.26032   23.90928   31.35187   57.90182   30.63982   35.2739    32.0218    35.2968    31.1133    
 1         37.01679          -1.200000   57.90182   30.63982   23.90928   31.35187   23.93293   30.44394   57.92547   29.73190   35.2968    31.1133    35.3204    30.2054    
 1         37.18614          -1.200000   57.92547   29.73190   23.93293   30.44394   23.95734   29.53655   57.94988   28.82451   35.3204    30.2054    35.3448    29.2980    
 1         37.35549          -1.200000   57.94988   28.82451   23.95734   29.53655   23.98250   28.62969   57.97504   27.91765   35.3448    29.2980    35.3700    28.3912    
 1         37.52485          -1.200000   57.97504   27.91765   23.98250   28.62969   24.00841   27.72336   58.00095   27.01132   35.3700    28.3912    35.3959    27.4848    
 1         37.69420          -1.200000   58.00095   27.01132   24.00841   27.72336   24.03507   26.81757   58.02761   26.10552   35.3959    27.4848    35.4226    26.5790    
 1         37.86356          -1.200000   58.02761   26.10552   24.03507   26.81757   24.06249   25.91230   58.05503   25.20026   35.4226    26.5790    35.4500    25.6738    
 1         38.03291          -1.200000   58.05503   25.20026   24.06249   25.91230   24.09065   25.00756   58.08320   24.29552   35.4500    25.6738    35.4782    24.7690    
 1         38.20226          -1.200000   58.08320   24.29552   24.09065   25.00756   24.11957   24.10335   58.11211   23.39131   35.4782    24.7690    35.5071    23.8648    
 1         38.37162          -1.200000   58.11211   23.39131   24.11957   24.10335   24.14924   23.19968   58.14178   22.48764   35.5071    23.8648    35.5367    22.9611    
 1         38.54097          -1.200000   58.14178   22.48764   24.14924   23.19968   24.17966   22.29653   58.17221   21.58449   35.5367    22.9611    35.5672    22.0580    
 1         38.71032          -1.200000   58.17221   21.58449   24.17966   22.29653   24.21084   21.39392   58.20338   20.68188   35.5672    22.0580    35.5983    21.1554    
 1         38.87968          -1.200000   58.20338   20.68188   24.21084   21.39392   24.24277   20.49184   58.23531   19.77979   35.5983    21.1554    35.6303    20.2533    
 1         39.04903          -1.200000   58.23531   19.77979   24.24277   20.49184   24.27544   19.59028   58.26799   18.87824   35.6303    20.2533    35.6629    19.3517    
 1         39.21839          -1.200000   58.26799   18.87824   24.27544   19.59028   24.30887   18.68926   58.30142   17.97722   35.6629    19.3517    35.6964    18.4507    
 1         39.38774          -1.200000   58.30142   17.97722   24.30887   18.68926   24.34306   17.78877   58.33560   17.07673   35.6964    18.4507    35.7306    17.5502    
 1         39.55709          -1.200000   58.33560   17.07673   24.34306   17.78877   24.37799   16.88881   58.37053   16.17676   35.7306    17.5502    35.7655    16.6503    
 1         39.72645          -1.200000   58.37053   16.17676   24.37799   16.88881   24.41368   15.98938   58.40622   15.27733   35.7655    16.6503    35.8012    15.7508    
 1         39.89580          -1.200000   58.40622   15.27733   24.41368   15.98938   24.45012   15.09048   58.44266   14.37843   35.8012    15.7508    35.8376    14.8519    
 1         40.06515          -1.200000   58.44266   14.37843   24.45012   15.09048   24.48731   14.19211   58.47985   13.48006   35.8376    14.8519    35.8748    13.9536    
 1         40.23451          -1.200000   58.47985   13.48006   24.48731   14.19211   24.52525   13.29427   58.51779   12.58223   35.8748    13.9536    35.9128    13.0557    
 1         40.40386          -1.200000   58.51779   12.58223   24.52525   13.29427   24.56394   12.39696   58.55648   11.68492   35.9128    13.0557    35.9514    12.1584    
 1         40.57322          -1.200000   58.55648   11.68492   24.56394   12.39696   24.60339   11.50018   58.59593   10.78814   35.9514    12.1584    35.9909    11.2616    
 1         40.74257          -1.200000   58.59593   10.78814   24.60339   11.50018   24.64359   10.60394   58.63613   9.89189    35.9909    11.2616    36.0311    10.3654    
 1         40.91192          -1.200000   58.63613   9.89189    24.64359   10.60394   24.68453   9.70822    58.67708   8.99618    36.0311    10.3654    36.0720    9.4697     
 1         41.08128          -1.200000   58.67708   8.99618    24.68453   9.70822    24.72624   8.81304    58.71878   8.10099    36.0720    9.4697     36.1137    8.5745     
 1         41.25063          -1.200000   58.71878   8.10099    24.72624   8.81304    24.76869   7.91838    58.76123   7.20634    36.1137    8.5745     36.1562    7.6798     
 1         41.41998          -1.200000   58.76123   7.20634    24.76869   7.91838    24.81190   7.02426    58.80444   6.31222    36.1562    7.6798     36.1994    6.7857     
 1         41.58934          -1.200000   58.80444   6.31222    24.81190   7.02426    24.85585   6.13066    58.84840   5.41862    36.1994    6.7857     36.2434    5.8921     
 1         41.75869          -1.200000   58.84840   5.41862    24.85585   6.13066    24.90056   5.23760    58.89311   4.52556    36.2434    5.8921     36.2881    4.9991     
 1         41.92805          -1.200000   58.89311   4.52556    24.90056   5.23760    24.94602   4.34507    58.93857   3.63303    36.2881    4.9991     36.3335    4.1065     
 1         42.09740          -1.200000   58.93857   3.63303    24.94602   4.34507    24.99224   3.45307    58.98478   2.74103    36.3335    4.1065     36.3797    3.2145     
 1         42.26675          -1.200000   58.98478   2.74103    24.99224   3.45307    25.03920   2.56160    59.03174   1.84956    36.3797    3.2145     36.4267    2.3231     
 1         42.43611          -1.200000   59.03174   1.84956    25.03920   2.56160    25.08692   1.67066    59.07946   0.95862    36.4267    2.3231     36.4744    1.4321     
 2         13.90000          -1.200000   95.27889   80.60396   61.28635   81.31601   61.26574   80.39252   95.25829   79.68048   72.6739    81.0775    72.6532    80.1540    
 2         13.98468          -1.200000   95.25829   79.68048   61.26574   80.39252   61.24607   79.46904   95.23861   78.75700   72.6532    80.1540    72.6336    79.2305    
 2         14.06935          -1.200000   95.23861   78.75700   61.24607   79.46904   61.22733   78.54556   95.21987   77.83351   72.6336    79.2305    72.6148    78.3070    
 2         14.15403          -1.200000   95.21987   77.83351   61.22733   78.54556   61.20953   77.62207   95.20207   76.91003   72.6148    78.3070    72.5970    77.3835    
 2         14.23871          -1.200000   95.20207   76.91003   61.20953   77.62207   61.19266   76.69859   95.18520   75.98655   72.5970    77.3835    72.5802    76.4601    
 2         14.32338          -1.200000   95.18520   75.98655   61.19266   76.69859   61.17673   75.77511   95.16927   75.06306   72.5802    76.4601    72.5642    75.5366    
 2         14.40806          -1.200000   95.16927   75.06306   61.17673   75.77511   61.16174   74.85162   95.15428   74.13958   72.5642    75.5366    72.5492    74.6131    
 2         14.49274          -1.200000   95.15428   74.13958   61.16174   74.85162   61.14767   73.92814   95.14022   73.21610   72.5492    74.6131    72.5352    73.6896    
 2         14.57741          -1.200000   95.14022   73.21610   61.14767   73.92814   61.13455   73.00466   95.12709   72.29261   72.5352    73.6896    72.5220    72.7661    
 2         14.66209          -1.200000   95.12709   72.29261   61.13455   73.00466   61.12236   72.08117   95.11490   71.36913   72.5220    72.7661    72.5099    71.8426    
 2         14.74677          -1.200000   95.11490   71.36913   61.12236   72.08117   61.11111   71.15769   95.10365   70.44565   72.5099    71.8426    72.4986    70.9192    
 2         14.83145          -1.200000   95.10365   70.44565   61.11111   71.15769   61.10079   70.23421   95.09333   69.52217   72.4986    70.9192    72.4883    69.9957    
 2         14.91612          -1.200000   95.09333   69.52217   61.10079   70.23421   61.09141   69.31072   95.08395   68.59868   72.4883    69.9957    72.4789    69.0722    
 2         15.00080          -1.200000   95.08395   68.59868   61.09141   69.31072   61.08296   68.38724   95.07550   67.67520   72.4789    69.0722    72.4705    68.1487    
 2         15.08548          -1.200000   95.07550   67.67520   61.08296   68.38724   61.07545   67.46376   95.06799   66.75172   72.4705    68.1487    72.4630    67.2252    
 2         15.17015          -1.200000   95.06799   66.75172   61.07545   67.46376   61.06887   66.54027   95.06141   65.82823   72.4630    67.2252    72.4564    66.3017    
 2         15.25483          -1.200000   95.06141   65.82823   61.06887   66.54027   61.06323   65.61679   95.05577   64.90475   72.4564    66.3017    72.4507    65.3783    
 2         15.33951          -1.200000   95.05577   64.90475   61.06323   65.61679   61.05853   64.69331   95.05107   63.98127   72.4507    65.3783    72.4460    64.4548    
 2         15.42418          -1.200000   95.05107   63.98127   61.05853   64.69331   61.05476   63.76982   95.04730   63.05778   72.4460    64.4548    72.4423    63.5313    
 2         15.50886          -1.200000   95.04730   63.05778   61.05476   63.76982   61.05192   62.84634   95.04447   62.13430   72.4423    63.5313    72.4394    62.6078    
 2         15.59354          -1.200000   95.04447   62.13430   61.05192   62.84634   61.05003   61.92286   95.04257   61.21082   72.4394    62.6078    72.4375    61.6843    
 2         15.67821          -1.200000   95.04257   61.21082   61.05003   61.92286   61.04906   60.99937   95.04161   60.28733   72.4375    61.6843    72.4366    60.7608    
 2         15.76289          -1.200000   95.04161   60.28733   61.04906   60.99937   61.04904   60.07589   95.04158   59.36385   72.4366    60.7608    72.4365    59.8374    
 2         15.84757          -1.200000   95.04158   59.36385   61.04904   60.07589   61.04994   59.15241   95.04249   58.44037   72.4365    59.8374    72.4374    58.9139    
 2         15.93224          -1.200000   95.04249   58.44037   61.04994   59.15241   61.05179   58.22892   95.04433   57.51688   72.4374    58.9139    72.4393    57.9904    
 2         16.01692          -1.200000   95.04433   57.51688   61.05179   58.22892   61.05457   57.30544   95.04711   56.59340   72.4393    57.9904    72.4421    57.0669    
 2         16.10160          -1.200000   95.04711   56.59340   61.05457   57.30544   61.05828   56.38196   95.05083   55.66992   72.4421    57.0669    72.4458    56.1434    
 2         16.18628          -1.200000   95.05083   55.66992   61.05828   56.38196   61.06293   55.45847   95.05548   54.74643   72.4458    56.1434    72.4504    55.2199    
 2         16.27095          -1.200000   95.05548   54.74643   61.06293   55.45847   61.06852   54.53499   95.06106   53.82295   72.4504    55.2199    72.4560    54.2965    
 2         16.35563          -1.200000   95.06106   53.82295   61.06852   54.53499   61.07504   53.61151   95.06758   52.89947   72.4560    54.2965    72.4625    53.3730    
 2         16.44031          -1.200000   95.06758   52.89947   61.07504   53.61151   61.08250   52.68803   95.07504   51.97598   72.4625    53.3730    72.4700    52.4495    
 2         16.52498          -1.200000   95.07504   51.97598   61.08250   52.68803   61.09089   51.76454   95.08343   51.05250   72.4700    52.4495    72.4784    51.5260    
 2         16.60966          -1.200000   95.08343   51.05250   61.09089   51.76454   61.10022   50.84106   95.09276   50.12902   72.4784    51.5260    72.4877    50.6025    
 2         16.69434          -1.200000   95.09276   50.12902   61.10022   50.84106   61.11048   49.91758   95.10303   49.20553   72.4877    50.6025    72.4980    49.6790    
 2         16.77901          -1.200000   95.10303   49.20553   61.11048   49.91758   61.12168   48.99409   95.11423   48.28205   72.4980    49.6790    72.5092    48.7556    
 2         16.86369          -1.200000   95.11423   48.28205   61.12168   48.99409   61.13382   48.07061   95.12636   47.35857   72.5092    48.7556    72.5213    47.8321    
 2         16.94837          -1.200000   95.12636   47.35857   61.13382   48.07061   61.14689   47.14713   95.13943   46.43508   72.5213    47.8321    72.5344    46.9086    
 2         17.03304          -1.200000   95.13943   46.43508   61.14689   47.14713   61.16089   46.22364   95.15344   45.51160   72.5344    46.9086    72.5484    45.9851    
 2         17.11772          -1.200000   95.15344   45.51160   61.16089   46.22364   61.17584   45.30016   95.16838   44.58812   72.5484    45.9851    72.5633    45.0616    
 2         17.20240          -1.200000   95.16838   44.58812   61.17584   45.30016   61.19171   44.37668   95.18426   43.66463   72.5633    45.0616    72.5792    44.1381    
 2         17.28707          -1.200000   95.18426   43.66463   61.19171   44.37668   61.20853   43.45319   95.20107   42.74115   72.5792    44.1381    72.5960    43.2147    
 2         17.37175          -1.200000   95.20107   42.74115   61.20853   43.45319   61.22627   42.52971   95.21882   41.81767   72.5960    43.2147    72.6138    42.2912    
 2         17.45643          -1.200000   95.21882   41.81767   61.22627   42.52971   61.24496   41.60623   95.23750   40.89418   72.6138    42.2912    72.6325    41.3677    
 2         17.54111          -1.200000   95.23750   40.89418   61.24496   41.60623   61.26458   40.68274   95.25712   39.97070   72.6325    41.3677    72.6521    40.4442    
 2         17.62578          -1.200000   95.25712   39.97070   61.26458   40.68274   61.28513   39.75926   95.27767   39.04722   72.6521    40.4442    72.6726    39.5207    
 2         17.71046          -1.200000   95.27767   39.04722   61.28513   39.75926   61.30662   38.83578   95.29917   38.12373   72.6726    39.5207    72.6941    38.5972    
 2         17.79514          -1.200000   95.29917   38.12373   61.30662   38.83578   61.32905   37.91229   95.32159   37.20025   72.6941    38.5972    72.7166    37.6738    
 2         17.87981          -1.200000   95.32159   37.20025   61.32905   37.91229   61.35241   36.98881   95.34495   36.27677   72.7166    37.6738    72.7399    36.7503    
 2         17.96449          -1.200000   95.34495   36.27677   61.35241   36.98881   61.37671   36.06533   95.36925   35.35328   72.7399    36.7503    72.7642    35.8268    
 2         18.04917          -1.200000   95.36925   35.35328   61.37671   36.06533   61.40194   35.14184   95.39448   34.42980   72.7642    35.8268    72.7894    34.9033    
 2         18.13384          -1.200000   95.39448   34.42980   61.40194   35.14184   61.42811   34.21836   95.42065   33.50632   72.7894    34.9033    72.8156    33.9798    
 2         18.21852          -1.200000   95.42065   33.50632   61.42811   34.21836   61.45521   33.29488   95.44775   32.58283   72.8156    33.9798    72.8427    33.0563    
 2         18.30320          -1.200000   95.44775   32.58283   61.45521   33.29488   61.48325   32.37139   95.47579   31.65935   72.8427    33.0563    72.8708    32.1329    
 2         18.38787          -1.200000   95.47579   31.65935   61.48325   32.37139   61.51223   31.44791   95.50477   30.73587   72.8708    32.1329    72.8997    31.2094    
 2         18.47255          -1.200000   95.50477   30.73587   61.51223   31.44791   61.54214   30.52443   95.53468   29.81238   72.8997    31.2094    72.9296    30.2859    
 2         18.55723          -1.200000   95.53468   29.81238   61.54214   30.52443   61.57298   29.60094   95.56552   28.88890   72.9296    30.2859    72.9605    29.3624    
 2         18.64190          -1.200000   95.56552   28.88890   61.57298   29.60094   61.60476   28.67746   95.59731   27.96542   72.9605    29.3624    72.9923    28.4389    
 2         18.72658          -1.200000   95.59731   27.96542   61.60476   28.67746   61.63748   27.75398   95.63002   27.04193   72.9923    28.4389    73.0250    27.5154    
 2         18.81126          -1.200000   95.63002   27.04193   61.63748   27.75398   61.67113   26.83049   95.66367   26.11845   73.0250    27.5154    73.0586    26.5920    
 2         18.89594          -1.200000   95.66367   26.11845   61.67113   26.83049   61.70572   25.90701   95.69826   25.19497   73.0586    26.5920    73.0932    25.6685    
 2         18.98061          -1.200000   95.69826   25.19497   61.70572   25.90701   61.74124   24.98353   95.73379   24.27148   73.0932    25.6685    73.1287    24.7450    
 2         19.06529          -1.200000   95.73379   24.27148   61.74124   24.98353   61.77770   24.06004   95.77025   23.34800   73.1287    24.7450    73.1652    23.8215    
 2         19.14997          -1.200000   95.77025   23.34800   61.77770   24.06004   61.81510   23.13656   95.80764   22.42452   73.1652    23.8215    73.2026    22.8980    
 2         19.23464          -1.200000   95.80764   22.42452   61.81510   23.13656   61.85343   22.21308   95.84597   21.50103   73.2026    22.8980    73.2409    21.9745    
 2         19.31932          -1.200000   95.84597   21.50103   61.85343   22.21308   61.89269   21.28959   95.88524   20.57755   73.2409    21.9745    73.2802    21.0511    
 2         19.40400          -1.200000   95.88524   20.57755   61.89269   21.28959   61.93289   20.36611   95.92544   19.65407   73.2802    21.0511    73.3204    20.1276    
 2         19.48867          -1.200000   95.92544   19.65407   61.93289   20.36611   61.97403   19.44263   95.96657   18.73058   73.3204    20.1276    73.3615    19.2041    
 2         19.57335          -1.200000   95.96657   18.73058   61.97403   19.44263   62.01610   18.51914   96.00865   17.80710   73.3615    19.2041    73.4036    18.2806    
 2         19.65803          -1.200000   96.00865   17.80710   62.01610   18.51914   62.05911   17.59566   96.05165   16.88362   73.4036    18.2806    73.4466    17.3571    
 2         19.74270          -1.200000   96.05165   16.88362   62.05911   17.59566   62.10306   16.67218   96.09560   15.96013   73.4466    17.3571    73.4906    16.4336    
 2         19.82738          -1.200000   96.09560   15.96013   62.10306   16.67218   62.14793   15.74869   96.14048   15.03665   73.4906    16.4336    73.5354    15.5102    
 2         19.91206          -1.200000   96.14048   15.03665   62.14793   15.74869   62.19375   14.82521   96.18629   14.11317   73.5354    15.5102    73.5813    14.5867    
 2         19.99673          -1.200000   96.18629   14.11317   62.19375   14.82521   62.24050   13.90173   96.23304   13.18968   73.5813    14.5867    73.6280    13.6632    
 2         20.08141          -1.200000   96.23304   13.18968   62.24050   13.90173   62.28818   12.97824   96.28073   12.26620   73.6280    13.6632    73.6757    12.7397    
 2         20.16609          -1.200000   96.28073   12.26620   62.28818   12.97824   62.33681   12.05476   96.32935   11.34272   73.6757    12.7397    73.7243    11.8162    
 2         20.25077          -1.200000   96.32935   11.34272   62.33681   12.05476   62.38636   11.13128   96.37891   10.41924   73.7243    11.8162    73.7739    10.8927    
 2         20.33544          -1.200000   96.37891   10.41924   62.38636   11.13128   62.43685   10.20779   96.42940   9.49575    73.7739    10.8927    73.8244    9.9693     
 2         20.42012          -1.200000   96.42940   9.49575    62.43685   10.20779   62.48828   9.28431    96.48083   8.57227    73.8244    9.9693     73.8758    9.0458     
 2         20.50480          -1.200000   96.48083   8.57227    62.48828   9.28431    62.54065   8.36083    96.53319   7.64879    73.8758    9.0458     73.9281    8.1223     
 2         20.58947          -1.200000   96.53319   7.64879    62.54065   8.36083    62.59394   7.43734    96.58649   6.72530    73.9281    8.1223     73.9814    7.1988     
 2         20.67415          -1.200000   96.58649   6.72530    62.59394   7.43734    62.64818   6.51386    96.64072   5.80182    73.9814    7.1988     74.0357    6.2753     
 2         20.75883          -1.200000   96.64072   5.80182    62.64818   6.51386    62.70335   5.59038    96.69589   4.87834    74.0357    6.2753     74.0909    5.3518     
 2         20.84350          -1.200000   96.69589   4.87834    62.70335   5.59038    62.75945   4.66689    96.75200   3.95485    74.0909    5.3518     74.1469    4.4284     
 2         20.92818          -1.200000   96.75200   3.95485    62.75945   4.66689    62.81650   3.74341    96.80904   3.03137    74.1469    4.4284     74.2040    3.5049     
 2         21.01286          -1.200000   96.80904   3.03137    62.81650   3.74341    62.87447   2.81993    96.86701   2.10789    74.2040    3.5049     74.2620    2.5814     
 2         21.09753          -1.200000   96.86701   2.10789    62.87447   2.81993    62.93338   1.89644    96.92593   1.18440    74.2620    2.5814     74.3209    1.6579     
 2         21.18221          -1.200000   96.92593   1.18440    62.93338   1.89644    62.99323   0.97296    96.98577   0.26092    74.3209    1.6579     74.3807    0.7344     
 2         21.26689          -1.200000   96.98577   0.26092    62.99323   0.97296    63.05402   0.04948    97.04656   -0.66256   74.3807    0.7344     74.4415    -0.1891    
 3         19.23464          -1.200000   97.59006   127.96369  63.59752   128.67573  63.52893   127.75225  97.52147   127.04021  74.9850    128.4372   74.9164    127.5137   
 3         19.40400          -1.200000   97.52147   127.04021  63.52893   127.75225  63.46128   126.82876  97.45382   126.11672  74.9164    127.5137   74.8488    126.5902   
 3         19.57335          -1.200000   97.45382   126.11672  63.46128   126.82876  63.39456   125.90528  97.38711   125.19324  74.8488    126.5902   74.7821    125.6667   
 3         19.74270          -1.200000   97.38711   125.19324  63.39456   125.90528  63.32878   124.98180  97.32133   124.26976  74.7821    125.6667   74.7163    124.7433   
 3         19.91206          -1.200000   97.32133   124.26976  63.32878   124.98180  63.26394   124.05831  97.25648   123.34627  74.7163    124.7433   74.6514    123.8198   
 3         20.08141          -1.200000   97.25648   123.34627  63.26394   124.05831  63.20003   123.13483  97.19257   122.42279  74.6514    123.8198   74.5875    122.8963   
 3         20.25077          -1.200000   97.19257   122.42279  63.20003   123.13483  63.13705   122.21135  97.12960   121.49930  74.5875    122.8963   74.5246    121.9728   
 3         20.42012          -1.200000   97.12960   121.49930  63.13705   122.21135  63.07502   121.28786  97.06756   120.57582  74.5246    121.9728   74.4625    121.0493   
 3         20.58947          -1.200000   97.06756   120.57582  63.07502   121.28786  63.01391   120.36438  97.00646   119.65234  74.4625    121.0493   74.4014    120.1258   
 3         20.75883          -1.200000   97.00646   119.65234  63.01391   120.36438  62.95375   119.44090  96.94629   118.72885  74.4014    120.1258   74.3412    119.2024   
 3         20.92818          -1.200000   96.94629   118.72885  62.95375   119.44090  62.89451   118.51741  96.88706   117.80537  74.3412    119.2024   74.2820    118.2789   
 3         21.09753          -1.200000   96.88706   117.80537  62.89451   118.51741  62.83622   117.59393  96.82876   116.88189  74.2820    118.2789   74.2237    117.3554   
 3         21.26689          -1.200000   96.82876   116.88189  62.83622   117.59393  62.77886   116.67045  96.77140   115.95840  74.2237    117.3554   74.1664    116.4319   
 3         21.43624          -1.200000   96.77140   115.95840  62.77886   116.67045  62.72243   115.74696  96.71497   115.03492  74.1664    116.4319   74.1099    115.5084   
 3         21.60560          -1.200000   96.71497   115.03492  62.72243   115.74696  62.66694   114.82348  96.65948   114.11144  74.1099    115.5084   74.0544    114.5849   
 1         19.57335          -1.200000   59.49268   126.99794  25.50014   127.70998  25.44635   126.74740  59.43889   126.03536  36.8876    127.4714   36.8339    126.5089   
 1         19.74270          -1.200000   59.43889   126.03536  25.44635   126.74740  25.39330   125.78535  59.38585   125.07331  36.8339    126.5089   36.7808    125.5468   
 1         19.91206          -1.200000   59.38585   125.07331  25.39330   125.78535  25.34101   124.82384  59.33356   124.11179  36.7808    125.5468   36.7285    124.5853   
 1         20.08141          -1.200000   59.33356   124.11179  25.34101   124.82384  25.28948   123.86285  59.28202   123.15081  36.7285    124.5853   36.6770    123.6243   
 1         20.25077          -1.200000   59.28202   123.15081  25.28948   123.86285  25.23869   122.90239  59.23123   122.19035  36.6770    123.6243   36.6262    122.6639   
 1         20.42012          -1.200000   59.23123   122.19035  25.23869   122.90239  25.18866   121.94247  59.18120   121.23042  36.6262    122.6639   36.5762    121.7039   
 1         20.58947          -1.200000   59.18120   121.23042  25.18866   121.94247  25.13937   120.98307  59.13192   120.27103  36.5762    121.7039   36.5269    120.7445   
 1         20.75883          -1.200000   59.13192   120.27103  25.13937   120.98307  25.09084   120.02420  59.08339   119.31216  36.5269    120.7445   36.4783    119.7857   
 1         20.92818          -1.200000   59.08339   119.31216  25.09084   120.02420  25.04307   119.06587  59.03561   118.35383  36.4783    119.7857   36.4306    118.8273   
 1         21.09753          -1.200000   59.03561   118.35383  25.04307   119.06587  24.99604   118.10807  58.98858   117.39602  36.4306    118.8273   36.3835    117.8695   
 1         21.26689          -1.200000   58.98858   117.39602  24.99604   118.10807  24.94976   117.15079  58.94231   116.43875  36.3835    117.8695   36.3373    116.9123   
 1         21.43624          -1.200000   58.94231   116.43875  24.94976   117.15079  24.90424   116.19405  58.89678   115.48201  36.3373    116.9123   36.2917    115.9555   
 1         21.60560          -1.200000   58.89678   115.48201  24.90424   116.19405  24.85947   115.23784  58.85201   114.52580  36.2917    115.9555   36.2470    114.9993   
 1         21.77495          -1.200000   58.85201   114.52580  24.85947   115.23784  24.81545   114.28216  58.80799   113.57012  36.2470    114.9993   36.2029    114.0436   
 1         21.94430          -1.200000   58.80799   113.57012  24.81545   114.28216  24.77219   113.32701  58.76473   112.61497  36.2029    114.0436   36.1597    113.0885   
 1         22.11366          -1.200000   58.76473   112.61497  24.77219   113.32701  24.72967   112.37239  58.72221   111.66035  36.1597    113.0885   36.1172    112.1339   
 1         22.28301          -1.200000   58.72221   111.66035  24.72967   112.37239  24.68791   111.41830  58.68045   110.70626  36.1172    112.1339   36.0754    111.1798   
 1         22.45236          -1.200000   58.68045   110.70626  24.68791   111.41830  24.64690   110.46474  58.63944   109.75270  36.0754    111.1798   36.0344    110.2262   
 1         22.62172          -1.200000   58.63944   109.75270  24.64690   110.46474  24.60664   109.51171  58.59918   108.79967  36.0344    110.2262   35.9941    109.2732   
 1         22.79107          -1.200000   58.59918   108.79967  24.60664   109.51171  24.56713   108.55922  58.55967   107.84718  35.9941    109.2732   35.9546    108.3207   
 1         22.96043          -1.200000   58.55967   107.84718  24.56713   108.55922  24.52837   107.60725  58.52092   106.89521  35.9546    108.3207   35.9159    107.3687   
 1         23.12978          -1.200000   58.52092   106.89521  24.52837   107.60725  24.49037   106.65582  58.48291   105.94377  35.9159    107.3687   35.8779    106.4173   
 1         23.29913          -1.200000   58.48291   105.94377  24.49037   106.65582  24.45312   105.70491  58.44566   104.99287  35.8779    106.4173   35.8406    105.4664   
 1         23.46849          -1.200000   58.44566   104.99287  24.45312   105.70491  24.41662   104.75454  58.40916   104.04249  35.8406    105.4664   35.8041    104.5160   
 1         23.63784          -1.200000   58.40916   104.04249  24.41662   104.75454  24.38087   103.80469  58.37342   103.09265  35.8041    104.5160   35.7684    103.5662   
 1         23.80719          -1.200000   58.37342   103.09265  24.38087   103.80469  24.34588   102.85538  58.33842   102.14334  35.7684    103.5662   35.7334    102.6168   
 1         23.97655          -1.200000   58.33842   102.14334  24.34588   102.85538  24.31163   101.90660  58.30418   101.19455  35.7334    102.6168   35.6991    101.6681   
 1         24.14590          -1.200000   58.30418   101.19455  24.31163   101.90660  24.27814   100.95835  58.27068   100.24630  35.6991    101.6681   35.6656    100.7198   
 1         24.31526          -1.200000   58.27068   100.24630  24.27814   100.95835  24.24540   100.01062  58.23795   99.29858   35.6656    100.7198   35.6329    99.7721    
 1         24.48461          -1.200000   58.23795   99.29858   24.24540   100.01062  24.21341   99.06343   58.20596   98.35139   35.6329    99.7721    35.6009    98.8249    
 1         24.65396          -1.200000   58.20596   98.35139   24.21341   99.06343   24.18218   98.11677   58.17472   97.40473   35.6009    98.8249    35.5697    97.8782    
 1         24.82332          -1.200000   58.17472   97.40473   24.18218   98.11677   24.15169   97.17065   58.14424   96.45860   35.5697    97.8782    35.5392    96.9321    
 1         24.99267          -1.200000   58.14424   96.45860   24.15169   97.17065   24.12196   96.22505   58.11451   95.51300   35.5392    96.9321    35.5095    95.9865    
 1         25.16202          -1.200000   58.11451   95.51300   24.12196   96.22505   24.09298   95.27998   58.08553   94.56794   35.5095    95.9865    35.4805    95.0414    
 1         25.33138          -1.200000   58.08553   94.56794   24.09298   95.27998   24.06475   94.33544   58.05730   93.62340   35.4805    95.0414    35.4523    94.0969    
 1         25.50073          -1.200000   58.05730   93.62340   24.06475   94.33544   24.03728   93.39144   58.02982   92.67939   35.4523    94.0969    35.4248    93.1529    
 1         25.67009          -1.200000   58.02982   92.67939   24.03728   93.39144   24.01055   92.44796   58.00310   91.73592   35.4248    93.1529    35.3981    92.2094    
 1         25.83944          -1.200000   58.00310   91.73592   24.01055   92.44796   23.98458   91.50502   57.97712   90.79297   35.3981    92.2094    35.3721    91.2665    
 1         26.00879          -1.200000   57.97712   90.79297   23.98458   91.50502   23.95936   90.56260   57.95190   89.85056   35.3721    91.2665    35.3469    90.3241    
 1         26.17815          -1.200000   57.95190   89.85056   23.95936   90.56260   23.93489   89.62072   57.92744   88.90868   35.3469    90.3241    35.3224    89.3822    
 1         26.34750          -1.200000   57.92744   88.90868   23.93489   89.62072   23.91118   88.67936   57.90372   87.96732   35.3224    89.3822    35.2987    88.4408    
 1         26.51685          -1.200000   57.90372   87.96732   23.91118   88.67936   23.88821   87.73854   57.88075   87.02650   35.2987    88.4408    35.2757    87.5000    
 1         26.68621          -1.200000   57.88075   87.02650   23.88821   87.73854   23.86600   86.79825   57.85854   86.08621   35.2757    87.5000    35.2535    86.5597    
 1         26.85556          -1.200000   57.85854   86.08621   23.86600   86.79825   23.84454   85.85849   57.83708   85.14645   35.2535    86.5597    35.2320    85.6200    
 1         27.02492          -1.200000   57.83708   85.14645   23.84454   85.85849   23.82383   84.91926   57.81637   84.20722   35.2320    85.6200    35.2113    84.6807    
 1         27.19427          -1.200000   57.81637   84.20722   23.82383   84.91926   23.80387   83.98056   57.79642   83.26852   35.2113    84.6807    35.1914    83.7420    
 1         27.36362          -1.200000   57.79642   83.26852   23.80387   83.98056   23.78467   83.04239   57.77721   82.33035   35.1914    83.7420    35.1722    82.8039    
 1         27.53298          -1.200000   57.77721   82.33035   23.78467   83.04239   23.76621   82.10475   57.75876   81.39271   35.1722    82.8039    35.1537    81.8662    
 1         27.70233          -1.200000   57.75876   81.39271   23.76621   82.10475   23.74851   81.16764   57.74106   80.45560   35.1537    81.8662    35.1360    80.9291    
 1         27.87168          -1.200000   57.74106   80.45560   23.74851   81.16764   23.73156   80.23107   57.72411   79.51902   35.1360    80.9291    35.1191    79.9925    
 1         28.04104          -1.200000   57.72411   79.51902   23.73156   80.23107   23.71537   79.29502   57.70791   78.58298   35.1191    79.9925    35.1029    79.0565    
 1         28.21039          -1.200000   57.70791   78.58298   23.71537   79.29502   23.69992   78.35951   57.69246   77.64746   35.1029    79.0565    35.0874    78.1210    
 1         28.37975          -1.200000   57.69246   77.64746   23.69992   78.35951   23.68523   77.42452   57.67777   76.71248   35.0874    78.1210    35.0727    77.1860    
 1         28.54910          -1.200000   57.67777   76.71248   23.68523   77.42452   23.67129   76.49007   57.66383   75.77802   35.0727    77.1860    35.0588    76.2515    
 1         28.71845          -1.200000   57.66383   75.77802   23.67129   76.49007   23.65810   75.55614   57.65064   74.84410   35.0588    76.2515    35.0456    75.3176    
 1         28.88781          -1.200000   57.65064   74.84410   23.65810   75.55614   23.64566   74.62275   57.63820   73.91071   35.0456    75.3176    35.0332    74.3842    
 1         29.05716          -1.200000   57.63820   73.91071   23.64566   74.62275   23.63397   73.68989   57.62652   72.97784   35.0332    74.3842    35.0215    73.4514    
 1         29.22651          -1.200000   57.62652   72.97784   23.63397   73.68989   23.62304   72.75755   57.61558   72.04551   35.0215    73.4514    35.0105    72.5190    
 1         29.39587          -1.200000   57.61558   72.04551   23.62304   72.75755   23.61286   71.82575   57.60540   71.11371   35.0105    72.5190    35.0004    71.5872    
 1         29.56522          -1.200000   57.60540   71.11371   23.61286   71.82575   23.60343   70.89448   57.59597   70.18244   35.0004    71.5872    34.9909    70.6559    
 1         29.73458          -1.200000   57.59597   70.18244   23.60343   70.89448   23.59475   69.96374   57.58729   69.25170   34.9909    70.6559    34.9823    69.7252    
 1         29.90393          -1.200000   57.58729   69.25170   23.59475   69.96374   23.58682   69.03353   57.57937   68.32149   34.9823    69.7252    34.9743    68.7950    
 1         30.07328          -1.200000   57.57937   68.32149   23.58682   69.03353   23.57965   68.10386   57.57219   67.39181   34.9743    68.7950    34.9672    67.8653    
 1         30.24264          -1.200000   57.57219   67.39181   23.57965   68.10386   23.57323   67.17471   57.56577   66.46267   34.9672    67.8653    34.9607    66.9362    
 1         30.41199          -1.200000   57.56577   66.46267   23.57323   67.17471   23.56756   66.24609   57.56010   65.53405   34.9607    66.9362    34.9551    66.0076    
 1         30.58134          -1.200000   57.56010   65.53405   23.56756   66.24609   23.56264   65.31801   57.55518   64.60596   34.9551    66.0076    34.9501    65.0795    
 1         30.75070          -1.200000   57.55518   64.60596   23.56264   65.31801   23.55847   64.39045   57.55102   63.67841   34.9501    65.0795    34.9460    64.1519    
 1         30.92005          -1.200000   57.55102   63.67841   23.55847   64.39045   23.55506   63.46342   57.54760   62.75138   34.9460    64.1519    34.9426    63.2249    
 1         31.08941          -1.200000   57.54760   62.75138   23.55506   63.46342   23.55240   62.53693   57.54494   61.82489   34.9426    63.2249    34.9399    62.2984    
 1         31.25876          -1.200000   57.54494   61.82489   23.55240   62.53693   23.55049   61.61097   57.54303   60.89892   34.9399    62.2984    34.9380    61.3724    
 1         31.42811          -1.200000   57.54303   60.89892   23.55049   61.61097   23.54933   60.68553   57.54187   59.97349   34.9380    61.3724    34.9368    60.4470    
 1         31.59747          -1.200000   57.54187   59.97349   23.54933   60.68553   23.54892   59.76063   57.54146   59.04859   34.9368    60.4470    34.9364    59.5221    
 1         31.76682          -1.200000   57.54146   59.04859   23.54892   59.76063   23.54927   58.83626   57.54181   58.12422   34.9364    59.5221    34.9368    58.5977    
 1         31.93617          -1.200000   57.54181   58.12422   23.54927   58.83626   23.55036   57.91242   57.54291   57.20038   34.9368    58.5977    34.9379    57.6739    
 1         32.10553          -1.200000   57.54291   57.20038   23.55036   57.91242   23.55221   56.98911   57.54476   56.27707   34.9379    57.6739    34.9397    56.7506    
 1         32.27488          -1.200000   57.54476   56.27707   23.55221   56.98911   23.55481   56.06633   57.54736   55.35429   34.9397    56.7506    34.9423    55.8278    
 1         32.44424          -1.200000   57.54736   55.35429   23.55481   56.06633   23.55817   55.14408   57.55071   54.43204   34.9423    55.8278    34.9457    54.9055    
 1         32.61359          -1.200000   57.55071   54.43204   23.55817   55.14408   23.56227   54.22236   57.55482   53.51032   34.9457    54.9055    34.9498    53.9838    
 1         32.78294          -1.200000   57.55482   53.51032   23.56227   54.22236   23.56713   53.30117   57.55967   52.58913   34.9498    53.9838    34.9546    53.0626    
 1         32.95230          -1.200000   57.55967   52.58913   23.56713   53.30117   23.57274   52.38052   57.56528   51.66847   34.9546    53.0626    34.9602    52.1420    
 1         33.12165          -1.200000   57.56528   51.66847   23.57274   52.38052   23.57910   51.46039   57.57164   50.74835   34.9602    52.1420    34.9666    51.2219    
 1         33.29100          -1.200000   57.57164   50.74835   23.57910   51.46039   23.58621   50.54079   57.57875   49.82875   34.9666    51.2219    34.9737    50.3023    
 1         33.46036          -1.200000   57.57875   49.82875   23.58621   50.54079   23.59408   49.62173   57.58662   48.90969   34.9737    50.3023    34.9816    49.3832    
 1         33.62971          -1.200000   57.58662   48.90969   23.59408   49.62173   23.60269   48.70319   57.59524   47.99115   34.9816    49.3832    34.9902    48.4647    
 1         33.79907          -1.200000   57.59524   47.99115   23.60269   48.70319   23.61206   47.78519   57.60460   47.07315   34.9902    48.4647    34.9996    47.5467    
 1         33.96842          -1.200000   57.60460   47.07315   23.61206   47.78519   23.62218   46.86772   57.61472   46.15567   34.9996    47.5467    35.0097    46.6292    
 1         34.13777          -1.200000   57.61472   46.15567   23.62218   46.86772   23.63305   45.95077   57.62560   45.23873   35.0097    46.6292    35.0206    45.7122    
 1         34.30713          -1.200000   57.62560   45.23873   23.63305   45.95077   23.64468   45.03436   57.63722   44.32232   35.0206    45.7122    35.0322    44.7958    
 1         34.47648          -1.200000   57.63722   44.32232   23.64468   45.03436   23.65705   44.11848   57.64960   43.40644   35.0322    44.7958    35.0446    43.8799    
 1         34.64583          -1.200000   57.64960   43.40644   23.65705   44.11848   23.67018   43.20313   57.66273   42.49109   35.0446    43.8799    35.0577    42.9646    
 1         34.81519          -1.200000   57.66273   42.49109   23.67018   43.20313   23.68406   42.28831   57.67661   41.57627   35.0577    42.9646    35.0716    42.0498    
 1         34.98454          -1.200000   57.67661   41.57627   23.68406   42.28831   23.69870   41.37402   57.69124   40.66198   35.0716    42.0498    35.0862    41.1355    
 1         35.15390          -1.200000   57.69124   40.66198   23.69870   41.37402   23.71408   40.46026   57.70662   39.74822   35.0862    41.1355    35.1016    40.2217    
 1         35.32325          -1.200000   57.70662   39.74822   23.71408   40.46026   23.73022   39.54704   57.72276   38.83499   35.1016    40.2217    35.1177    39.3085    
 1         35.49260          -1.200000   57.72276   38.83499   23.73022   39.54704   23.74710   38.63434   57.73965   37.92230   35.1177    39.3085    35.1346    38.3958    
 1         35.66196          -1.200000   57.73965   37.92230   23.74710   38.63434   23.76474   37.72217   57.75729   37.01013   35.1346    38.3958    35.1522    37.4836    
 1         35.83131          -1.200000   57.75729   37.01013   23.76474   37.72217   23.78313   36.81054   57.77568   36.09849   35.1522    37.4836    35.1706    36.5720    
 1         36.00066          -1.200000   57.77568   36.09849   23.78313   36.81054   23.80228   35.89943   57.79482   35.18739   35.1706    36.5720    35.1898    35.6609    
 1         36.17002          -1.200000   57.79482   35.18739   23.80228   35.89943   23.82217   34.98886   57.81472   34.27681   35.1898    35.6609    35.2097    34.7503    
 1         36.33937          -1.200000   57.81472   34.27681   23.82217   34.98886   23.84282   34.07881   57.83536   33.36677   35.2097    34.7503    35.2303    33.8403    
 1         36.50873          -1.200000   57.83536   33.36677   23.84282   34.07881   23.86422   33.16930   57.85676   32.45726   35.2303    33.8403    35.2517    32.9308    
 1         36.67808          -1.200000   57.85676   32.45726   23.86422   33.16930   23.88637   32.26032   57.87891   31.54827   35.2517    32.9308    35.2739    32.0218    
 1         36.84743          -1.200000   57.87891   31.54827   23.88637   32.26032   23.90928   31.35187   57.90182   30.63982   35.2739    32.0218    35.2968    31.1133    
 1         37.01679          -1.200000   57.90182   30.63982   23.90928   31.35187   23.93293   30.44394   57.92547   29.73190   35.2968    31.1133    35.3204    30.2054    
 1         37.18614          -1.200000   57.92547   29.73190   23.93293   30.44394   23.95734   29.53655   57.94988   28.82451   35.3204    30.2054    35.3448    29.2980    
 1         37.35549          -1.200000   57.94988   28.82451   23.95734   29.53655   23.98250   28.62969   57.97504   27.91765   35.3448    29.2980    35.3700    28.3912    
 1         37.52485          -1.200000   57.97504   27.91765   23.98250   28.62969   24.00841   27.72336   58.00095   27.01132   35.3700    28.3912    35.3959    27.4848    
 1         37.69420          -1.200000   58.00095   27.01132   24.00841   27.72336   24.03507   26.81757   58.02761   26.10552   35.3959    27.4848    35.4226    26.5790    
 1         37.86356          -1.200000   58.02761   26.10552   24.03507   26.81757   24.06249   25.91230   58.05503   25.20026   35.4226    26.5790    35.4500    25.6738    
 1         38.03291          -1.200000   58.05503   25.20026   24.06249   25.91230   24.09065   25.00756   58.08320   24.29552   35.4500    25.6738    35.4782    24.7690    
 1         38.20226          -1.200000   58.08320   24.29552   24.09065   25.00756   24.11957   24.10335   58.11211   23.39131   35.4782    24.7690    35.5071    23.8648    
 1         38.37162          -1.200000   58.11211   23.39131   24.11957   24.10335   24.14924   23.19968   58.14178   22.48764   35.5071    23.8648    35.5367    22.9611    
 1         38.54097          -1.200000   58.14178   22.48764   24.14924   23.19968   24.17966   22.29653   58.17221   21.58449   35.5367    22.9611    35.5672    22.0580    
 1         38.71032          -1.200000   58.17221   21.58449   24.17966   22.29653   24.21084   21.39392   58.20338   20.68188   35.5672    22.0580    35.5983    21.1554    
 1         38.87968          -1.200000   58.20338   20.68188   24.21084   21.39392   24.24277   20.49184   58.23531   19.77979   35.5983    21.1554    35.6303    20.2533    
 1         39.04903          -1.200000   58.23531   19.77979   24.24277   20.49184   24.27544   19.59028   58.26799   18.87824   35.6303    20.2533    35.6629    19.3517    
 1         39.21839          -1.200000   58.26799   18.87824   24.27544   19.59028   24.30887   18.68926   58.30142   17.97722   35.6629    19.3517    35.6964    18.4507    
 1         39.38774          -1.200000   58.30142   17.97722   24.30887   18.68926   24.34306   17.78877   58.33560   17.07673   35.6964    18.4507    35.7306    17.5502    
 1         39.55709          -1.200000   58.33560   17.07673   24.34306   17.78877   24.37799   16.88881   58.37053   16.17676   35.7306    17.5502    35.7655    16.6503    
 1         39.72645          -1.200000   58.37053   16.17676   24.37799   16.88881   24.41368   15.98938   58.40622   15.27733   35.7655    16.6503    35.8012    15.7508    
 1         39.89580          -1.200000   58.40622   15.27733   24.41368   15.98938   24.45012   15.09048   58.44266   14.37843   35.8012    15.7508    35.8376    14.8519    
 1         40.06515          -1.200000   58.44266   14.37843   24.45012   15.09048   24.48731   14.19211   58.47985   13.48006   35.8376    14.8519    35.8748    13.9536    
 1         40.23451          -1.200000   58.47985   13.48006   24.48731   14.19211   24.52525   13.29427   58.51779   12.58223   35.8748    13.9536    35.9128    13.0557    
 1         40.40386          -1.200000   58.51779   12.58223   24.52525   13.29427   24.56394   12.39696   58.55648   11.68492   35.9128    13.0557    35.9514    12.1584    
 1         40.57322          -1.200000   58.55648   11.68492   24.56394   12.39696   24.60339   11.50018   58.59593   10.78814   35.9514    12.1584    35.9909    11.2616    
 1         40.74257          -1.200000   58.59593   10.78814   24.60339   11.50018   24.64359   10.60394   58.63613   9.89189    35.9909    11.2616    36.0311    10.3654    
 1         40.91192          -1.200000   58.63613   9.89189    24.64359   10.60394   24.68453   9.70822    58.67708   8.99618    36.0311    10.3654    36.0720    9.4697     
 1         41.08128          -1.200000   58.67708   8.99618    24.68453   9.70822    24.72624   8.81304    58.71878   8.10099    36.0720    9.4697     36.1137    8.5745     
 1         41.25063          -1.200000   58.71878   8.10099    24.72624   8.81304    24.76869   7.91838    58.76123   7.20634    36.1137    8.5745     36.1562    7.6798     
 1         41.41998          -1.200000   58.76123   7.20634    24.76869   7.91838    24.81190   7.02426    58.80444   6.31222    36.1562    7.6798     36.1994    6.7857     
 1         41.58934          -1.200000   58.80444   6.31222    24.81190   7.02426    24.85585   6.13066    58.84840   5.41862    36.1994    6.7857     36.2434    5.8921     
 1         41.75869          -1.200000   58.84840   5.41862    24.85585   6.13066    24.90056   5.23760    58.89311   4.52556    36.2434    5.8921     36.2881    4.9991     
 1         41.92805          -1.200000   58.89311   4.52556    24.90056   5.23760    24.94602   4.34507    58.93857   3.63303    36.2881    4.9991     36.3335    4.1065     
 1         42.09740          -1.200000   58.93857   3.63303    24.94602   4.34507    24.99224   3.45307    58.98478   2.74103    36.3335    4.1065     36.3797    3.2145     
 1         42.26675          -1.200000   58.98478   2.74103    24.99224   3.45307    25.03920   2.56160    59.03174   1.84956    36.3797    3.2145     36.4267    2.3231     
 1         42.43611          -1.200000   59.03174   1.84956    25.03920   2.56160    25.08692   1.67066    59.07946   0.95862    36.4267    2.3231     36.4744    1.4321     
 2         13.90000          -1.200000   95.27889   80.60396   61.28635   81.31601   61.26574   80.39252   95.25829   79.68048   72.6739    81.0775    72.6532    80.1540    
 2         13.98468          -1.200000   95.25829   79.68048   61.26574   80.39252   61.24607   79.46904   95.23861   78.75700   72.6532    80.1540    72.6336    79.2305    
 2         14.06935          -1.200000   95.23861   78.75700   61.24607   79.46904   61.22733   78.54556   95.21987   77.83351   72.6336    79.2305    72.6148    78.3070    
 2         14.15403          -1.200000   95.21987   77.83351   61.22733   78.54556   61.20953   77.62207   95.20207   76.91003   72.6148    78.3070    72.5970    77.3835    
 2         14.23871          -1.200000   95.20207   76.91003   61.20953   77.62207   61.19266   76.69859   95.18520   75.98655   72.5970    77.3835    72.5802    76.4601    
 2         14.32338          -1.200000   95.18520   75.98655   61.19266   76.69859   61.17673   75.77511   95.16927   75.06306   72.5802    76.4601    72.5642    75.5366    
 2         14.40806          -1.200000   95.16927   75.06306   61.17673   75.77511   61.16174   74.85162   95.15428   74.13958   72.5642    75.5366    72.5492    74.6131    
 2         14.49274          -1.200000   95.15428   74.13958   61.16174   74.85162   61.14767   73.92814   95.14022   73.21610   72.5492    74.6131    72.5352    73.6896    
 2         14.57741          -1.200000   95.14022   73.21610   61.14767   73.92814   61.13455   73.00466   95.12709   72.29261   72.5352    73.6896    72.5220    72.7661    
 2         14.66209          -1.200000   95.12709   72.29261   61.13455   73.00466   61.12236   72.08117   95.11490   71.36913   72.5220    72.7661    72.5099    71.8426    
 2         14.74677          -1.200000   95.11490   71.36913   61.12236   72.08117   61.11111   71.15769   95.10365   70.44565   72.5099    71.8426    72.4986    70.9192    
 2         14.83145          -1.200000   95.10365   70.44565   61.11111   71.15769   61.10079   70.23421   95.09333   69.52217   72.4986    70.9192    72.4883    69.9957    
